,Time,S1_D1_Red,S2_D2_Red,S3_D3_Red,S4_D4_Red,S5_D5_Red,S6_D6_Red,S7_D7_Red,S8_D8_Red,S1_D1_Ir,S2_D2_Ir,S3_D3_Ir,S4_D4_Ir,S5_D5_Ir,S6_D6_Ir,S7_D7_Ir,S8_D8_Ir
0,0.0,0.0006357828776041666,0.0006357828776041666,0.17038981119791666,0.1220703125,370.34352620442706,393.3340708414714,456.631342569987,247.70673116048178,160.69157918294272,0.0006357828776041666,0.0006357828776041666,0.0476837158203125,0.006357828776041667,235.91995239257812,256.56763712565106,309.5499674479167
1,1.0,0.09218851725260417,0.14241536458333334,0.026067097981770832,0.06739298502604167,131.56000773111978,155.08397420247397,195.55981953938803,100.61264038085938,59.76549784342448,0.3789265950520833,0.006993611653645833,0.10935465494791667,0.2606709798177083,86.92232767740886,108.45629374186198,134.4432830810547
2,2.0,0.19582112630208334,0.010808308919270834,0.052769978841145836,0.0324249267578125,59.62498982747396,80.54606119791667,87.30252583821614,46.923319498697914,35.97195943196615,0.008900960286458334,0.1506805419921875,0.2193450927734375,0.010172526041666666,48.23748270670573,68.07581583658855,53.24618021647135
3,3.0,0.037511189778645836,0.133514404296875,0.055948893229166664,0.08138020833333333,46.60606384277344,52.66888936360677,43.84549458821615,39.151509602864586,37.4749501546224,0.1544952392578125,0.054041544596354164,0.08392333984375,0.3617604573567708,45.48772176106771,33.411661783854164,33.02574157714844
4,4.0,0.15004475911458334,0.09791056315104167,0.026067097981770832,0.0820159912109375,41.89872741699219,31.77197774251302,37.563323974609375,48.02894592285156,44.2352294921875,0.2676645914713542,0.047047932942708336,0.029246012369791668,0.10363260904947917,30.080795288085938,24.629592895507812,34.46006774902344
5,5.0,0.18628438313802084,0.07375081380208333,0.006993611653645833,0.15958150227864584,28.868357340494793,31.82538350423177,42.1606699625651,42.21916198730469,23.848215738932293,0.055948893229166664,0.050862630208333336,0.048955281575520836,0.09028116861979167,21.1334228515625,29.60522969563802,42.819976806640625
6,6.0,0.048319498697916664,0.0006357828776041666,0.0705718994140625,0.06421407063802083,27.808507283528645,40.50254821777344,45.613606770833336,25.54003397623698,20.464579264322918,0.16911824544270834,0.029881795247395832,0.18628438313802084,0.13796488444010416,25.957107543945312,40.692647298177086,31.250635782877605
7,7.0,0.024159749348958332,0.087738037109375,0.06930033365885417,0.038782755533854164,33.21266174316406,46.9366709391276,31.744003295898438,28.32794189453125,28.546651204427082,0.043233235677083336,0.194549560546875,0.06103515625,0.12334187825520833,34.9585215250651,36.06224060058594,22.944132486979168
8,8.0,0.12842814127604166,0.1735687255859375,0.2155303955078125,0.012715657552083334,40.53306579589844,33.289591471354164,30.796051025390625,38.66704305013021,41.58782958984375,0.1678466796875,0.012715657552083334,0.0896453857421875,0.008900960286458334,36.510467529296875,21.287282307942707,27.353922526041668
9,9.0,0.029246012369791668,0.015894571940104168,0.19073486328125,0.048319498697916664,34.88922119140625,28.936386108398438,36.20719909667969,46.57427469889323,33.28069051106771,0.0286102294921875,0.08265177408854167,0.07883707682291667,0.13033548990885416,22.03687032063802,24.993896484375,37.20219930013021
10,10.0,0.141143798828125,0.0133514404296875,0.10045369466145833,0.014623006184895834,26.857376098632812,35.06342569986979,46.20806376139323,30.138015747070312,17.342249552408855,0.1468658447265625,0.1010894775390625,0.06993611653645833,0.19900004069010416,23.040771484375,34.809112548828125,39.50373331705729
11,11.0,0.08074442545572917,0.0858306884765625,0.046412150065104164,0.0820159912109375,30.338287353515625,44.62242126464844,38.500467936197914,25.76891581217448,23.555755615234375,0.15513102213541666,0.19391377766927084,0.255584716796875,0.11571248372395833,30.442555745442707,41.47148132324219,23.13232421875
12,12.0,0.050862630208333336,0.1049041748046875,0.3064473470052083,0.019709269205729168,36.87349955240885,41.38056437174479,29.017130533854168,34.10530090332031,35.68331400553385,0.10617574055989583,0.10236104329427083,0.18628438313802084,0.012079874674479166,39.082845052083336,26.403427124023438,23.784637451171875
13,13.0,0.0006357828776041666,0.12652079264322916,0.025431315104166668,0.020345052083333332,39.44524129231771,29.297510782877605,32.75616963704427,45.031229654947914,41.76966349283854,0.019709269205729168,0.20853678385416666,0.23905436197916666,0.0782012939453125,28.677622477213543,23.406346638997395,31.94427490234375
14,14.0,0.3490447998046875,0.006357828776041667,0.13860066731770834,0.060399373372395836,26.912689208984375,30.780792236328125,41.96993509928385,40.233612060546875,22.412618001302082,0.0438690185546875,0.025431315104166668,0.052769978841145836,0.16530354817708334,20.373026529947918,29.053370157877605,42.124430338541664
15,15.0,0.2117156982421875,0.1049041748046875,0.1239776611328125,0.141143798828125,27.470906575520832,39.13052876790365,44.93077596028646,23.706436157226562,19.453684488932293,0.050226847330729164,0.033060709635416664,0.004450480143229167,0.031153361002604168,25.931040445963543,39.79619344075521,30.120213826497395
16,16.0,0.07947285970052083,0.07120768229166667,0.06612141927083333,0.09028116861979167,33.17960103352865,45.88508605957031,30.36181131998698,29.24664815266927,29.205322265625,0.17102559407552084,0.06739298502604167,0.0031789143880208335,0.08519490559895833,35.42264302571615,34.8059336344401,22.344589233398438
17,17.0,0.019073486328125,0.06612141927083333,0.09409586588541667,0.033696492513020836,40.6494140625,33.060709635416664,28.737386067708332,38.761138916015625,41.77029927571615,0.011444091796875,0.11380513509114583,0.029881795247395832,0.11189778645833333,35.858154296875,21.42016092936198,26.650746663411457
18,18.0,0.17293294270833334,0.08392333984375,0.11571248372395833,0.12079874674479167,32.1661631266276,28.334935506184895,35.47223409016927,45.7916259765625,32.52092997233073,0.408172607421875,0.23714701334635416,0.039418538411458336,0.22061665852864584,20.346323649088543,24.951934814453125,36.87413533528646
19,19.0,0.037511189778645836,0.014623006184895834,0.15767415364583334,0.156402587890625,26.536941528320312,35.29230753580729,45.66764831542969,28.0609130859375,16.39111836751302,0.008265177408854166,0.102996826171875,0.040690104166666664,0.047047932942708336,22.667566935221355,35.024007161458336,38.24615478515625
20,20.0,0.091552734375,0.0133514404296875,0.11507670084635417,0.10935465494791667,31.01030985514323,44.63768005371094,38.248697916666664,24.972279866536457,23.25439453125,0.2994537353515625,0.024159749348958332,0.1201629638671875,0.0934600830078125,31.416575113932293,41.259765625,22.870381673177082
21,21.0,0.021616617838541668,0.050862630208333336,0.14813741048177084,0.06548563639322917,37.90601094563802,41.00735982259115,29.022216796875,32.8057607014974,35.21728515625,0.0476837158203125,0.2002716064453125,0.09091695149739583,0.08265177408854167,39.562225341796875,25.80579121907552,24.513880411783855
22,22.0,0.027338663736979168,0.026067097981770832,0.1354217529296875,0.006993611653645833,39.09174601236979,28.57526143391927,32.89159138997396,44.86910502115885,41.15931193033854,0.6497701009114584,0.0209808349609375,0.19327799479166666,0.034968058268229164,26.93494160970052,22.97528584798177,32.34672546386719
23,23.0,0.054041544596354164,0.1850128173828125,0.308990478515625,0.2657572428385417,27.006785074869793,31.674702962239582,43.01261901855469,39.26849365234375,21.280924479166668,0.006357828776041667,0.09918212890625,0.09282430013020833,0.102996826171875,21.04504903157552,29.858907063802082,42.36030578613281
24,24.0,0.10045369466145833,0.0591278076171875,0.09473164876302083,0.06930033365885417,27.612050374348957,39.11463419596354,44.3108876546224,25.014241536458332,20.191192626953125,0.07692972819010417,0.21298726399739584,0.014623006184895834,0.012079874674479166,26.533126831054688,40.07848103841146,29.607772827148438
25,25.0,0.2193450927734375,0.014623006184895834,0.16276041666666666,0.20853678385416666,34.350077311197914,45.41905721028646,29.657999674479168,26.986440022786457,28.205235799153645,0.048955281575520836,0.11761983235677083,0.0095367431640625,0.148773193359375,36.59884134928385,34.182230631510414,22.11443583170573
26,26.0,0.005086263020833333,0.12334187825520833,0.080108642578125,0.1220703125,41.11035664876302,31.69695536295573,30.536651611328125,38.70582580566406,41.934967041015625,0.044504801432291664,0.10935465494791667,0.07184346516927083,0.08392333984375,35.30057271321615,20.966211954752605,27.875264485677082
27,27.0,0.19327799479166666,0.1068115234375,0.06103515625,0.054041544596354164,33.57696533203125,28.154373168945312,37.23971048990885,45.803070068359375,31.839370727539062,0.11698404947916667,0.03814697265625,0.17229715983072916,0.22824605305989584,21.325429280598957,24.949391682942707,38.50746154785156
28,28.0,0.09473164876302083,0.07120768229166667,0.048955281575520836,0.09282430013020833,26.812235514322918,34.61265563964844,46.5094248453776,28.162002563476562,17.51708984375,0.07692972819010417,0.045140584309895836,0.16085306803385416,0.047047932942708336,23.10625712076823,34.91973876953125,37.600199381510414
29,29.0,0.09409586588541667,0.12143452962239583,0.09091695149739583,0.0006357828776041666,30.74200948079427,44.834136962890625,37.23589579264323,26.34874979654948,24.538040161132812,0.0457763671875,0.20090738932291666,0.16085306803385416,0.06739298502604167,31.65753682454427,40.86875915527344,22.577285766601562
30,30.0,0.012715657552083334,0.09791056315104167,0.1773834228515625,0.20726521809895834,37.69556681315104,39.19855753580729,28.104146321614582,33.899943033854164,35.90710957845052,0.07120768229166667,0.2504984537760417,0.06612141927083333,0.026702880859375,38.729349772135414,24.907430013020832,24.276097615559895
31,31.0,0.08328755696614583,0.049591064453125,0.0095367431640625,0.19327799479166666,38.39937845865885,29.045740763346355,32.36707051595052,45.124053955078125,41.23497009277344,0.118255615234375,0.3528594970703125,0.09218851725260417,0.15195210774739584,26.4129638671875,23.424148559570312,32.620747884114586
32,32.0,0.07184346516927083,0.156402587890625,0.0553131103515625,0.040690104166666664,26.51659647623698,31.667709350585938,43.0755615234375,38.58184814453125,20.52752176920573,0.0152587890625,0.023523966471354168,0.07565816243489583,0.152587890625,21.081288655598957,30.199686686197918,42.0538584391276
33,33.0,0.06612141927083333,0.0025431315104166665,0.14050801595052084,0.095367431640625,27.83648173014323,40.172576904296875,43.48564147949219,24.248123168945312,20.365397135416668,0.15703837076822916,0.027974446614583332,0.1220703125,0.07502237955729167,26.734034220377605,40.737152099609375,28.4576416015625
34,34.0,0.003814697265625,0.09663899739583333,0.12524922688802084,0.1049041748046875,33.55725606282552,46.06755574544271,28.851826985677082,28.382619222005207,29.51494852701823,0.060399373372395836,0.2740224202473958,0.024159749348958332,0.006357828776041667,36.084493001302086,33.35126241048177,22.69744873046875
35,35.0,0.15322367350260416,0.012079874674479166,0.13415018717447916,0.0019073486328125,40.52543640136719,31.414031982421875,30.783971150716145,39.5361582438151,42.46838887532552,0.0019073486328125,0.09663899739583333,0.1010894775390625,0.0247955322265625,34.41429138183594,21.43096923828125,28.519948323567707
36,36.0,0.21489461263020834,0.017801920572916668,0.0133514404296875,0.048955281575520836,31.859079996744793,28.402328491210938,36.509195963541664,45.66192626953125,30.335108439127605,0.029881795247395832,0.14241536458333334,0.12143452962239583,0.018437703450520832,20.636876424153645,25.989532470703125,38.576761881510414
37,37.0,0.07692972819010417,0.15703837076822916,0.11698404947916667,0.10617574055989583,25.945663452148438,35.214742024739586,46.03004455566406,27.605692545572918,17.662684122721355,0.16339619954427084,0.08455912272135417,0.0629425048828125,0.095367431640625,22.63323465983073,35.43980916341146,36.84298197428385
38,38.0,0.07947285970052083,0.11189778645833333,0.1392364501953125,0.0012715657552083333,30.829747517903645,45.01024881998698,36.53780619303385,26.06201171875,24.659474690755207,0.0858306884765625,0.013987223307291666,0.058492024739583336,0.045140584309895836,31.630833943684895,40.35758972167969,22.283554077148438
39,39.0,0.2924601236979167,0.055948893229166664,0.015894571940104168,0.045140584309895836,37.83861796061198,39.2462412516276,28.903961181640625,33.08550516764323,36.22309366861979,0.11571248372395833,0.05340576171875,0.4571278889973958,0.1220703125,38.53162129720052,24.262110392252605,24.579366048177082
40,40.0,0.1926422119140625,0.026067097981770832,0.054677327473958336,0.14495849609375,38.242340087890625,29.320398966471355,33.57251485188802,45.08082071940104,40.35059611002604,0.0133514404296875,0.10744730631510417,0.0025431315104166665,0.16085306803385416,25.89098612467448,23.78527323404948,33.61320495605469
41,41.0,0.11889139811197917,0.004450480143229167,0.046412150065104164,0.0457763671875,26.042938232421875,31.496683756510418,43.4729258219401,37.68221537272135,19.727071126302082,0.08138020833333333,0.4049936930338542,0.008900960286458334,0.0006357828776041666,21.117528279622395,30.40631612141927,41.86185201009115
42,42.0,0.0025431315104166665,0.11126200358072917,0.061670939127604164,0.2581278483072917,28.975804646809895,40.15286763509115,43.18682352701823,24.383544921875,20.887374877929688,0.22125244140625,0.11889139811197917,0.010808308919270834,0.0705718994140625,27.792612711588543,40.8172607421875,27.79070536295573
43,43.0,0.22633870442708334,0.17611185709635416,0.17674763997395834,0.031153361002604168,35.36351521809896,44.53086853027344,29.08643086751302,29.287974039713543,29.906590779622395,0.1430511474609375,0.087738037109375,0.029881795247395832,0.13605753580729166,37.65424092610677,31.899134318033855,22.676467895507812
44,44.0,0.1239776611328125,0.0095367431640625,0.07184346516927083,0.06739298502604167,42.0525868733724,30.534108479817707,29.715855916341145,38.67022196451823,42.31071472167969,0.006993611653645833,0.347137451171875,0.06548563639322917,0.022252400716145832,34.32655334472656,21.430333455403645,28.306325276692707
45,45.0,0.005086263020833333,0.15322367350260416,0.033696492513020836,0.11507670084635417,32.01421101888021,29.527664184570312,37.891387939453125,45.16029357910156,29.296875,0.0362396240234375,0.13287862141927084,0.042597452799479164,0.017801920572916668,20.977020263671875,26.529312133789062,38.83171081542969
46,46.0,0.07375081380208333,0.1010894775390625,0.008265177408854166,0.10808308919270833,27.38634745279948,36.249796549479164,46.0351308186849,26.785532633463543,17.36895243326823,0.1468658447265625,0.15322367350260416,0.041961669921875,0.4367828369140625,23.874282836914062,36.72981262207031,35.92236836751302
47,47.0,0.09028116861979167,0.12652079264322916,0.18819173177083334,0.07756551106770833,30.808766682942707,45.49471537272135,34.90575154622396,26.131312052408855,24.8870849609375,0.19772847493489584,0.023523966471354168,0.029246012369791668,0.07947285970052083,31.990687052408855,40.00409444173177,21.991729736328125
48,48.0,0.008900960286458334,0.110626220703125,0.2193450927734375,0.008265177408854166,39.31999206542969,38.32244873046875,28.99932861328125,34.34308369954427,37.68285115559896,0.16721089680989584,0.057856241861979164,0.225067138671875,0.12906392415364584,39.02435302734375,23.428599039713543,25.226593017578125
49,49.0,0.18437703450520834,0.10236104329427083,0.044504801432291664,0.270843505859375,36.65924072265625,29.062271118164062,34.3316396077474,47.03394571940104,40.637969970703125,0.020345052083333332,0.012715657552083334,0.17992655436197916,0.2002716064453125,24.621963500976562,23.75475565592448,34.38631693522135
50,50.0,0.09981791178385417,0.034968058268229164,0.015894571940104168,0.102996826171875,25.765101114908855,33.259073893229164,43.79908243815104,36.19511922200521,18.746058146158855,0.20154317220052084,0.02288818359375,0.015894571940104168,0.0006357828776041666,21.578470865885418,31.592686971028645,41.23242696126302
51,51.0,0.13987223307291666,0.06548563639322917,0.034968058268229164,0.13860066731770834,27.03539530436198,41.73723856608073,41.76521301269531,25.056838989257812,21.547317504882812,0.11571248372395833,0.07375081380208333,0.08455912272135417,0.11507670084635417,26.659011840820312,42.147318522135414,26.517232259114582
52,52.0,0.011444091796875,0.2619425455729167,0.06802876790364583,0.010808308919270834,34.8358154296875,45.033772786458336,28.778711954752605,29.697418212890625,30.853271484375,0.0514984130859375,0.037511189778645836,0.1506805419921875,0.0858306884765625,37.198384602864586,31.125386555989582,22.687911987304688
53,53.0,0.0743865966796875,0.12079874674479167,0.19900004069010416,0.052134195963541664,39.897918701171875,30.592600504557293,30.122756958007812,39.81335957845052,42.8320566813151,0.16721089680989584,0.14368693033854166,0.11952718098958333,0.041325887044270836,32.3028564453125,21.924972534179688,28.764724731445312
54,54.0,0.010808308919270834,0.12334187825520833,0.060399373372395836,0.07311503092447917,29.96063232421875,29.048919677734375,38.63080342610677,44.1900889078776,27.456283569335938,0.1201629638671875,0.19709269205729166,0.1239776611328125,0.046412150065104164,19.617080688476562,26.37036641438802,39.02117411295573
55,55.0,0.164031982421875,0.0820159912109375,0.021616617838541668,0.03814697265625,26.940663655598957,35.564422607421875,46.284993489583336,26.051839192708332,18.30609639485677,0.07311503092447917,0.12143452962239583,0.19709269205729166,0.29754638671875,24.307886759440105,37.06677754720052,35.08758544921875
56,56.0,0.31280517578125,0.0025431315104166665,0.18819173177083334,0.152587890625,31.759262084960938,45.635223388671875,33.36970011393229,25.899251302083332,25.159200032552082,0.13860066731770834,0.15513102213541666,0.07120768229166667,0.09028116861979167,32.96470642089844,38.899739583333336,21.105448404947918
57,57.0,0.11444091796875,0.06802876790364583,0.046412150065104164,0.016530354817708332,39.18011983235677,37.312825520833336,29.45391337076823,35.161336263020836,38.785298665364586,0.2657572428385417,0.054677327473958336,0.07947285970052083,0.029881795247395832,38.47694396972656,22.809982299804688,25.547027587890625
58,58.0,0.2829233805338542,0.3490447998046875,0.039418538411458336,0.049591064453125,36.27332051595052,27.47790018717448,34.13581848144531,47.108968098958336,38.738250732421875,0.031153361002604168,0.13796488444010416,0.09091695149739583,0.1087188720703125,24.042129516601562,23.413976033528645,34.456888834635414
59,59.0,0.0209808349609375,0.025431315104166668,0.07502237955729167,0.15004475911458334,27.060190836588543,32.5927734375,44.28863525390625,35.21156311035156,18.4173583984375,0.060399373372395836,0.09218851725260417,0.1010894775390625,0.034332275390625,22.796630859375,31.91820780436198,40.996551513671875
60,60.0,0.07565816243489583,0.07565816243489583,0.052134195963541664,0.1735687255859375,29.061635335286457,41.70036315917969,40.941874186197914,26.189168294270832,22.219340006510418,0.0286102294921875,0.072479248046875,0.016530354817708332,0.0209808349609375,28.715133666992188,41.760762532552086,25.995254516601562
61,61.0,0.2269744873046875,0.06421407063802083,0.040690104166666664,0.07565816243489583,35.410563151041664,43.72596740722656,27.575174967447918,29.240926106770832,31.264623006184895,0.5219777425130209,0.11189778645833333,0.13669331868489584,0.1373291015625,37.813822428385414,30.106862386067707,22.527058919270832
62,62.0,0.0095367431640625,0.22379557291666666,0.08392333984375,0.06739298502604167,40.36649068196615,29.524485270182293,30.657450358072918,41.065216064453125,43.444315592447914,0.2422332763671875,0.054677327473958336,0.025431315104166668,0.026702880859375,32.17951456705729,21.502176920572918,29.131571451822918
63,63.0,0.1735687255859375,0.3865559895833333,0.19772847493489584,0.037511189778645836,30.715306599934895,28.791427612304688,38.97221883138021,44.19771830240885,26.846567789713543,0.125885009765625,0.10999043782552083,0.016530354817708332,0.052769978841145836,20.24523417154948,26.883443196614582,39.8413340250651
64,64.0,0.039418538411458336,0.0362396240234375,0.011444091796875,0.11380513509114583,26.48607889811198,36.59947713216146,45.31669616699219,25.979995727539062,18.934885660807293,0.07692972819010417,0.064849853515625,0.010808308919270834,0.13287862141927084,24.245580037434895,37.631988525390625,34.08114115397135
65,65.0,0.09409586588541667,0.0006357828776041666,0.057220458984375,0.10999043782552083,32.02501932779948,46.21187845865885,32.74726867675781,25.603612263997395,25.433858235677082,0.16721089680989584,0.10808308919270833,0.07756551106770833,0.08646647135416667,33.19676717122396,38.57739766438802,21.788279215494793
66,66.0,0.018437703450520832,0.055948893229166664,0.30517578125,0.3693898518880208,39.12035624186198,36.66814168294271,28.716405232747395,35.762786865234375,39.372762044270836,0.15195210774739584,0.064849853515625,0.034332275390625,0.17865498860677084,37.88948059082031,22.484461466471355,25.42432149251302
67,67.0,0.18628438313802084,0.125885009765625,0.050862630208333336,0.15576680501302084,35.870869954427086,28.50659688313802,34.548441569010414,46.71669006347656,37.53471374511719,0.12461344401041667,0.2530415852864583,0.08900960286458333,0.0006357828776041666,22.874832153320312,23.967742919921875,35.02782185872396
68,68.0,0.24286905924479166,0.11444091796875,0.039418538411458336,0.15767415364583334,26.872634887695312,33.7073008219401,44.90025838216146,32.849629720052086,17.309188842773438,0.029246012369791668,0.06357828776041667,0.02288818359375,0.06548563639322917,21.849314371744793,32.78541564941406,40.52734375
69,69.0,0.5105336507161459,0.0762939453125,0.3649393717447917,0.0629425048828125,28.530120849609375,42.140960693359375,39.7802988688151,24.885177612304688,21.879831949869793,0.05340576171875,0.0705718994140625,0.013987223307291666,0.0762939453125,28.265635172526043,42.07928975423177,24.40325419108073
70,70.0,0.07184346516927083,0.004450480143229167,0.14050801595052084,0.286102294921875,35.81110636393229,43.93704732259115,28.065999348958332,29.951095581054688,32.64490763346354,0.029881795247395832,0.17992655436197916,0.0362396240234375,0.064849853515625,37.89202372233073,29.355367024739582,23.129781087239582
71,71.0,0.23714701334635416,0.029881795247395832,0.021616617838541668,0.1373291015625,38.852691650390625,29.299418131510418,30.773162841796875,42.23442077636719,43.3203379313151,0.0286102294921875,0.048319498697916664,0.0743865966796875,0.0133514404296875,30.198415120442707,22.22124735514323,29.815673828125
72,72.0,0.09854634602864583,0.3077189127604167,0.07311503092447917,0.102996826171875,28.42267354329427,29.542922973632812,40.027618408203125,43.51488749186198,25.76446533203125,0.1010894775390625,0.21044413248697916,0.08710225423177083,0.031789143880208336,20.181020100911457,27.34820048014323,40.659586588541664
73,73.0,0.1773834228515625,0.22633870442708334,0.013987223307291666,0.059763590494791664,26.686986287434895,37.480672200520836,45.36883036295573,24.544397989908855,18.944422403971355,0.0025431315104166665,0.0006357828776041666,0.10935465494791667,0.09091695149739583,24.686177571614582,38.569132486979164,33.2482655843099
74,74.0,0.1583099365234375,0.18310546875,0.072479248046875,0.14241536458333334,32.06761678059896,46.25256856282552,31.462351481119793,27.41559346516927,26.763280232747395,0.194549560546875,0.050862630208333336,0.11952718098958333,0.045140584309895836,34.076690673828125,37.56078084309896,21.415074666341145
75,75.0,0.046412150065104164,0.09028116861979167,0.10553995768229167,0.015894571940104168,41.194915771484375,35.95670064290365,28.532028198242188,36.198933919270836,40.33788045247396,0.024159749348958332,0.056584676106770836,0.043233235677083336,0.0514984130859375,39.03007507324219,21.978378295898438,25.62395731608073
76,76.0,0.031153361002604168,0.16848246256510416,0.08392333984375,0.2530415852864583,34.56560770670573,28.540293375651043,35.07868448893229,48.4155019124349,36.96759541829427,0.19900004069010416,0.0171661376953125,0.0553131103515625,0.026067097981770832,21.765391031901043,23.717244466145832,35.55425008138021
77,77.0,0.408172607421875,0.24859110514322916,0.1983642578125,0.0896453857421875,26.082356770833332,33.06897481282552,43.88554890950521,33.986409505208336,18.29083760579427,0.012079874674479166,0.057220458984375,0.040690104166666664,0.16339619954427084,21.825154622395832,32.93609619140625,39.89092508951823
78,78.0,0.1277923583984375,0.12334187825520833,0.1811981201171875,0.020345052083333332,29.24346923828125,43.146769205729164,38.51000467936198,24.336496988932293,21.94976806640625,0.10617574055989583,0.17865498860677084,0.09918212890625,0.036875406901041664,29.061635335286457,41.47911071777344,23.383458455403645
79,79.0,0.3058115641276042,0.064849853515625,0.0171661376953125,0.0133514404296875,35.776774088541664,42.66166687011719,27.692159016927082,31.61176045735677,33.84590148925781,0.15576680501302084,0.30517578125,0.10553995768229167,0.017801920572916668,37.867228190104164,28.169631958007812,23.088455200195312
80,80.0,0.05340576171875,0.03814697265625,0.008900960286458334,0.0171661376953125,38.96204630533854,28.84356180826823,31.11584981282552,43.972015380859375,42.5726572672526,0.0762939453125,0.2994537353515625,0.00762939453125,0.0006357828776041666,29.571533203125,22.087732950846355,30.246734619140625
81,81.0,0.06993611653645833,0.026067097981770832,0.06993611653645833,0.058492024739583336,28.54156494140625,31.339009602864582,40.24632771809896,42.2064463297526,24.776458740234375,0.1010894775390625,0.033060709635416664,0.055948893229166664,0.0896453857421875,20.559310913085938,28.8543701171875,40.89164733886719
82,82.0,0.118255615234375,0.017801920572916668,0.027974446614583332,0.0400543212890625,26.187896728515625,37.56268819173177,44.954935709635414,23.790995279947918,18.739064534505207,0.043233235677083336,0.1049041748046875,0.07883707682291667,0.011444091796875,24.840037027994793,39.2157236735026,31.69568379720052
83,83.0,0.045140584309895836,0.010808308919270834,0.044504801432291664,0.06739298502604167,32.45417277018229,46.21442159016927,30.706405639648438,26.85546875,26.932398478190105,0.00762939453125,0.0171661376953125,0.06612141927083333,0.10426839192708333,34.77032979329427,36.34198506673177,21.802902221679688
84,84.0,0.08455912272135417,0.0476837158203125,0.022252400716145832,0.07947285970052083,40.39637247721354,34.92863972981771,28.947194417317707,37.02863057454427,40.8471425374349,0.20472208658854166,0.07692972819010417,0.10236104329427083,0.09981791178385417,38.05351257324219,21.820704142252605,26.406606038411457
85,85.0,0.18310546875,0.4304250081380208,0.045140584309895836,0.13987223307291666,34.54780578613281,28.212865193684895,35.44489542643229,46.567281087239586,34.79830423990885,0.0476837158203125,0.016530354817708332,0.2759297688802083,0.016530354817708332,21.901448567708332,24.251937866210938,36.52318318684896
86,86.0,0.38909912109375,0.0012715657552083333,0.18437703450520834,0.14623006184895834,25.50188700358073,33.17387898763021,45.171101888020836,32.162984212239586,18.255869547526043,0.15894571940104166,0.06802876790364583,0.003814697265625,0.07883707682291667,21.97710673014323,33.457438151041664,39.74787394205729
87,87.0,0.12906392415364584,0.19200642903645834,0.026067097981770832,0.2969106038411458,28.986612955729168,43.74122619628906,38.03380330403646,25.168736775716145,22.432963053385418,0.0591278076171875,0.09981791178385417,0.156402587890625,0.029246012369791668,29.510498046875,41.0772959391276,22.838592529296875
88,88.0,0.1735687255859375,0.16530354817708334,0.040690104166666664,0.110626220703125,36.85824076334635,42.18101501464844,28.369903564453125,32.37469991048177,34.57768758138021,0.08265177408854167,0.3077189127604167,0.20535786946614584,0.13287862141927084,39.27167256673177,26.97308858235677,23.347854614257812
89,89.0,0.4126230875651042,0.12334187825520833,0.026702880859375,0.11507670084635417,38.998921712239586,27.877171834309895,31.641006469726562,44.48382059733073,42.32152303059896,0.19009908040364584,0.3821055094401042,0.045140584309895836,0.2288818359375,28.656005859375,21.749496459960938,31.049092610677082
90,90.0,0.10999043782552083,0.09918212890625,0.16530354817708334,0.0362396240234375,27.591705322265625,30.11639912923177,40.39637247721354,41.37547810872396,23.515701293945312,0.064849853515625,0.033696492513020836,0.4469553629557292,0.033060709635416664,20.472208658854168,28.555552164713543,41.32270812988281
91,91.0,0.3420511881510417,0.09218851725260417,0.054041544596354164,0.026702880859375,26.387532552083332,38.38539123535156,44.13795471191406,24.738311767578125,19.683202107747395,0.10236104329427083,0.2574920654296875,0.08646647135416667,0.054677327473958336,25.026957194010418,38.94233703613281,30.63519795735677
92,92.0,0.064849853515625,0.06993611653645833,0.08392333984375,0.12079874674479167,32.48786926269531,46.12032572428385,29.59124247233073,27.98016866048177,28.266270955403645,0.052134195963541664,0.125885009765625,0.06930033365885417,0.029881795247395832,34.879048665364586,35.49830118815104,21.572113037109375
93,93.0,0.2892812093098958,0.17801920572916666,0.15195210774739584,0.019073486328125,40.83442687988281,34.44099426269531,29.227574666341145,38.82789611816406,41.94196065266927,0.11444091796875,0.044504801432291664,0.3159840901692708,0.09028116861979167,36.87349955240885,21.963119506835938,26.886622111002605
94,94.0,0.07311503092447917,0.2619425455729167,0.0782012939453125,0.08328755696614583,33.009847005208336,28.820037841796875,35.18994649251302,46.40388488769531,33.40975443522135,0.0324249267578125,0.027974446614583332,0.02288818359375,0.061670939127604164,20.700454711914062,25.371551513671875,36.71073913574219
95,95.0,0.13287862141927084,0.08900960286458333,0.11126200358072917,0.11952718098958333,26.575088500976562,35.2484385172526,45.7909901936849,30.595779418945312,17.76885986328125,0.0133514404296875,0.1678466796875,0.07120768229166667,0.003814697265625,22.785186767578125,34.49376424153646,38.48838806152344
96,96.0,0.044504801432291664,0.2524058024088542,0.2956390380859375,0.18819173177083334,29.724756876627605,44.13159688313802,36.85887654622396,25.82105000813802,22.963205973307293,0.16085306803385416,0.0133514404296875,0.0820159912109375,0.133514404296875,30.130386352539062,40.93233744303385,22.534688313802082
97,97.0,0.0019073486328125,0.3534952799479167,0.0057220458984375,0.048319498697916664,37.3694101969401,41.231791178385414,28.215408325195312,32.95453389485677,35.303751627604164,0.1964569091796875,0.0457763671875,0.10236104329427083,0.07184346516927083,39.174397786458336,26.186625162760418,23.827870686848957
98,98.0,0.0667572021484375,0.18564860026041666,0.17801920572916666,0.050226847330729164,39.00464375813802,28.474807739257812,32.65062967936198,44.39671834309896,41.516621907552086,0.033696492513020836,0.049591064453125,0.09028116861979167,0.041325887044270836,27.701059977213543,22.610982259114582,32.10322062174479
99,99.0,0.19073486328125,0.0019073486328125,0.057856241861979164,0.0591278076171875,26.699066162109375,30.179341634114582,42.35204060872396,39.39628601074219,21.661122639973957,0.19009908040364584,0.286102294921875,0.018437703450520832,0.20345052083333334,20.331064860026043,28.62866719563802,41.56049092610677
100,100.0,0.06930033365885417,0.055948893229166664,0.21044413248697916,0.12906392415364584,26.87517801920573,38.4972890218099,44.44440205891927,24.714152018229168,19.675572713216145,0.0820159912109375,0.060399373372395836,0.033696492513020836,0.06802876790364583,25.801340738932293,39.27040100097656,29.576619466145832
101,101.0,0.08837381998697917,0.2504984537760417,0.06357828776041667,0.064849853515625,33.11030069986979,45.41015625,29.104868570963543,28.97961934407552,29.17035420735677,0.036875406901041664,0.008900960286458334,0.058492024739583336,0.049591064453125,35.945892333984375,34.626007080078125,21.420796712239582
102,102.0,0.2651214599609375,0.06612141927083333,0.2803802490234375,0.05340576171875,40.265401204427086,33.0963134765625,28.630574544270832,38.85968526204427,41.3812001546224,0.16466776529947916,0.19137064615885416,0.07692972819010417,0.20154317220052084,35.2624257405599,21.660486857096355,26.559193929036457
103,103.0,0.029881795247395832,0.0209808349609375,0.23015340169270834,0.1811981201171875,32.09686279296875,28.39978535970052,36.7889404296875,45.92323303222656,32.40267435709635,0.2040863037109375,0.12270609537760417,0.0553131103515625,0.13287862141927084,20.168304443359375,25.29589335123698,38.150787353515625
104,104.0,0.0006357828776041666,0.08646647135416667,0.087738037109375,0.026067097981770832,26.386260986328125,34.59294637044271,46.152750651041664,29.764811197916668,18.12299092610677,0.10236104329427083,0.2829233805338542,0.18755594889322916,0.0972747802734375,22.64086405436198,34.65970357259115,37.97594706217448
105,105.0,0.09600321451822917,0.11571248372395833,0.2593994140625,0.1373291015625,30.16217549641927,44.361114501953125,35.945892333984375,25.575637817382812,23.835500081380207,0.09663899739583333,0.13860066731770834,0.09028116861979167,0.13987223307291666,30.851999918619793,40.435791015625,21.780014038085938
106,106.0,0.3630320231119792,0.050226847330729164,0.179290771484375,0.0514984130859375,37.943522135416664,40.23615519205729,28.220494588216145,33.76897176106771,35.84734598795573,0.09663899739583333,0.1125335693359375,0.036875406901041664,0.2460479736328125,39.110819498697914,25.124867757161457,23.929595947265625
107,107.0,0.13415018717447916,0.31280517578125,0.06993611653645833,0.164031982421875,38.49919637044271,28.701146443684895,32.64490763346354,43.07683308919271,40.09310404459635,0.5906422932942709,0.033060709635416664,0.060399373372395836,0.029881795247395832,26.398976643880207,22.769927978515625,32.64808654785156
108,108.0,0.006993611653645833,0.07375081380208333,0.1735687255859375,0.044504801432291664,26.905059814453125,30.789693196614582,43.15948486328125,37.384033203125,19.913991292317707,0.11126200358072917,0.055948893229166664,0.0858306884765625,0.023523966471354168,21.134694417317707,29.41131591796875,42.027791341145836
109,109.0,0.015894571940104168,0.21807352701822916,0.13605753580729166,0.13033548990885416,27.865091959635418,39.00782267252604,43.858846028645836,24.84448750813802,20.291646321614582,0.10808308919270833,0.016530354817708332,0.004450480143229167,0.14623006184895834,26.288350423177082,40.196736653645836,28.595606486002605
110,110.0,0.091552734375,0.4380544026692708,0.015894571940104168,0.06802876790364583,34.2864990234375,45.06556193033854,29.228846232096355,28.937657674153645,29.676437377929688,0.1316070556640625,0.09218851725260417,0.015894571940104168,0.2752939860026042,36.8798573811849,33.327738444010414,22.711435953776043
111,111.0,0.13605753580729166,0.055948893229166664,0.1811981201171875,0.06548563639322917,40.27112325032552,30.94927469889323,29.832204182942707,38.78593444824219,42.21343994140625,0.072479248046875,0.06866455078125,0.1239776611328125,0.2422332763671875,34.1790517171224,21.129608154296875,27.779261271158855
112,112.0,0.054677327473958336,0.0438690185546875,0.23778279622395834,0.21425882975260416,31.017303466796875,29.219309488932293,37.46604919433594,45.69880167643229,30.73438008626302,0.09218851725260417,0.11380513509114583,0.031153361002604168,0.026702880859375,19.7601318359375,25.834401448567707,38.851420084635414
113,113.0,0.06802876790364583,0.16911824544270834,0.0934600830078125,0.034968058268229164,26.170730590820312,36.220550537109375,46.198527018229164,27.140299479166668,17.305374145507812,0.035603841145833336,0.022252400716145832,0.0152587890625,0.22824605305989584,23.028055826822918,36.01964314778646,36.945343017578125
114,114.0,0.0972747802734375,0.08328755696614583,0.3554026285807292,0.13478597005208334,29.375076293945312,44.6008046468099,35.60193379720052,25.353749593098957,24.365743001302082,0.0438690185546875,0.18310546875,0.059763590494791664,0.21680196126302084,30.913670857747395,40.34296671549479,22.230784098307293
115,115.0,0.024159749348958332,0.07565816243489583,0.2079010009765625,0.15385945638020834,39.42680358886719,39.569854736328125,27.91913350423177,31.259536743164062,35.3387196858724,0.029881795247395832,0.12270609537760417,0.19327799479166666,0.00762939453125,39.57494099934896,24.50879414876302,24.342854817708332
116,116.0,0.07756551106770833,0.10236104329427083,0.16085306803385416,0.06866455078125,38.204193115234375,28.859456380208332,33.36970011393229,45.061747233072914,40.62207539876302,0.048955281575520836,0.027974446614583332,0.17484029134114584,0.2504984537760417,26.609420776367188,23.25884501139323,33.6456298828125
117,117.0,0.021616617838541668,0.07375081380208333,0.12842814127604166,0.21807352701822916,26.511510213216145,31.710306803385418,43.93196105957031,37.3992919921875,19.086837768554688,0.12079874674479167,0.15004475911458334,0.16848246256510416,0.0286102294921875,21.270116170247395,29.939651489257812,41.713714599609375
118,118.0,0.1983642578125,0.18819173177083334,0.21107991536458334,0.038782755533854164,28.350194295247395,39.72180684407552,43.06666056315104,25.254567464192707,21.120071411132812,0.09981791178385417,0.08392333984375,0.023523966471354168,0.14813741048177084,27.49951680501302,40.68692525227865,28.130849202473957
119,119.0,0.14559427897135416,0.24159749348958334,0.19518534342447916,0.10935465494791667,34.44798787434896,44.80425516764323,28.460184733072918,29.526392618815105,30.44446309407552,0.11507670084635417,0.07311503092447917,0.08455912272135417,0.08392333984375,37.144978841145836,32.15789794921875,22.36493428548177
120,120.0,0.13224283854166666,0.027974446614583332,0.20662943522135416,0.003814697265625,39.49737548828125,30.791600545247395,29.880523681640625,39.74024454752604,43.49644978841146,0.08138020833333333,0.23142496744791666,0.18374125162760416,0.2307891845703125,32.741546630859375,21.91925048828125,28.420766194661457
121,121.0,0.148773193359375,0.042597452799479164,0.23778279622395834,0.1087188720703125,31.381607055664062,29.13665771484375,38.01282246907552,43.6407725016276,28.536478678385418,0.023523966471354168,0.3992716471354167,0.0324249267578125,0.0025431315104166665,20.422617594401043,26.145299275716145,38.91754150390625
122,122.0,0.08519490559895833,0.08392333984375,0.0667572021484375,0.07502237955729167,28.10986836751302,35.34507751464844,45.824686686197914,27.029037475585938,18.610636393229168,0.0591278076171875,0.003814697265625,0.15131632486979166,0.1544952392578125,24.293899536132812,36.04761759440104,35.6909434000651
123,123.0,0.047047932942708336,0.026067097981770832,0.11889139811197917,0.043233235677083336,31.70331319173177,45.15965779622396,34.230550130208336,26.697158813476562,25.314966837565105,0.09282430013020833,0.0171661376953125,0.19200642903645834,0.2721150716145833,32.3950449625651,40.17194112141927,21.958669026692707
124,124.0,0.18755594889322916,0.08837381998697917,0.023523966471354168,0.22761027018229166,40.10581970214844,38.744608561197914,28.37689717610677,34.40984090169271,37.5518798828125,0.050226847330729164,0.31280517578125,0.110626220703125,0.06612141927083333,39.08348083496094,23.773193359375,24.300257364908855
125,125.0,0.15004475911458334,0.274658203125,0.029246012369791668,0.08710225423177083,37.907918294270836,29.393513997395832,32.953898111979164,46.39244079589844,40.2825673421224,0.16530354817708334,0.10426839192708333,0.056584676106770836,0.18946329752604166,25.369008382161457,23.924509684244793,33.2177480061849
126,126.0,0.019073486328125,0.0934600830078125,0.18183390299479166,0.08265177408854167,25.702794392903645,32.75871276855469,44.4952646891276,37.2314453125,19.33606465657552,0.21107991536458334,0.15767415364583334,0.08138020833333333,0.2307891845703125,21.668116251627605,31.081517537434895,41.42189025878906
127,127.0,0.08265177408854167,0.07311503092447917,0.03814697265625,0.12079874674479167,27.826309204101562,39.84705607096354,41.22734069824219,26.82050069173177,21.820068359375,0.21616617838541666,0.17293294270833334,0.0972747802734375,0.055948893229166664,27.318318684895832,40.83124796549479,26.587804158528645
128,128.0,0.025431315104166668,0.0006357828776041666,0.058492024739583336,0.14750162760416666,35.07423400878906,43.8849131266276,26.958465576171875,28.528213500976562,30.358632405598957,0.06612141927083333,0.514984130859375,0.3344217936197917,0.14432271321614584,37.72417704264323,31.031290690104168,21.72088623046875
129,129.0,0.1373291015625,0.0476837158203125,0.06930033365885417,0.013987223307291666,39.20555114746094,30.094146728515625,29.980977376302082,39.34478759765625,42.599995930989586,0.16276041666666666,0.08710225423177083,0.06612141927083333,0.12969970703125,32.45226542154948,21.79272969563802,28.617223103841145
130,130.0,0.013987223307291666,0.019073486328125,0.09282430013020833,0.06548563639322917,30.45336405436198,29.21613057454427,39.310455322265625,43.819427490234375,27.794520060221355,0.005086263020833333,0.06103515625,0.171661376953125,0.1888275146484375,20.289103190104168,26.160558064778645,39.90745544433594
131,131.0,0.07883707682291667,0.17611185709635416,0.20090738932291666,0.15004475911458334,25.826136271158855,35.29675801595052,45.72868347167969,26.27118428548177,18.987019856770832,0.11380513509114583,0.09028116861979167,0.09981791178385417,0.141143798828125,23.7884521484375,36.62681579589844,35.32536824544271
132,132.0,0.0476837158203125,0.13605753580729166,0.07375081380208333,0.017801920572916668,30.472437540690105,45.37264506022135,33.498128255208336,26.807785034179688,25.450388590494793,0.2663930257161458,0.15958150227864584,0.060399373372395836,0.036875406901041664,31.882603963216145,39.19029235839844,21.586100260416668
133,133.0,0.005086263020833333,0.0247955322265625,0.060399373372395836,0.3751118977864583,40.47203063964844,37.46859232584635,28.124491373697918,35.085042317708336,38.808186848958336,0.1926422119140625,0.12524922688802084,0.0782012939453125,0.11571248372395833,38.69756062825521,22.729873657226562,24.621327718098957
134,134.0,0.055948893229166664,0.26702880859375,0.08646647135416667,0.07311503092447917,36.890665690104164,29.95745340983073,34.04553731282552,46.2646484375,38.5589599609375,0.0025431315104166665,0.12969970703125,0.1316070556640625,0.07184346516927083,24.295806884765625,24.702707926432293,34.31828816731771
135,135.0,0.23206075032552084,0.1125335693359375,0.10999043782552083,0.3064473470052083,26.06519063313802,32.80067443847656,45.09607950846354,34.88858540852865,18.324534098307293,0.052134195963541664,0.22379557291666666,0.033696492513020836,0.2625783284505208,21.172205607096355,31.63909912109375,41.58147176106771
136,136.0,0.20726521809895834,0.12715657552083334,0.13478597005208334,0.041961669921875,28.518040974934895,40.4364267985026,41.22734069824219,26.411056518554688,22.403717041015625,0.10363260904947917,0.06993611653645833,0.052769978841145836,0.038782755533854164,28.21795145670573,41.24259948730469,26.704788208007812
137,137.0,0.10045369466145833,0.1392364501953125,0.014623006184895834,0.061670939127604164,35.95733642578125,44.09980773925781,27.43212381998698,30.30840555826823,31.64227803548177,0.057856241861979164,0.1201629638671875,0.023523966471354168,0.1049041748046875,38.195292154947914,30.03247578938802,21.96057637532552
138,138.0,0.023523966471354168,0.015894571940104168,0.008900960286458334,0.0019073486328125,40.6792958577474,29.973347981770832,30.783335367838543,40.35186767578125,42.51988728841146,0.17547607421875,0.004450480143229167,0.07756551106770833,0.09028116861979167,32.440185546875,22.177378336588543,29.733022054036457
139,139.0,0.038782755533854164,0.102996826171875,0.14432271321614584,0.005086263020833333,30.462900797526043,29.638926188151043,39.577484130859375,43.33178202311198,26.20697021484375,0.026702880859375,0.035603841145833336,0.3649393717447917,0.20535786946614584,20.428975423177082,27.113596598307293,40.2367909749349
140,140.0,0.102996826171875,0.1697540283203125,0.17865498860677084,0.0972747802734375,26.269276936848957,35.58985392252604,45.39934794108073,25.506337483723957,19.319534301757812,0.050862630208333336,0.1049041748046875,0.043233235677083336,0.031153361002604168,24.12859598795573,37.68475850423177,33.85289510091146
141,141.0,0.037511189778645836,0.16085306803385416,0.072479248046875,0.039418538411458336,31.94745381673177,45.583089192708336,32.7606201171875,27.13330586751302,26.11859639485677,0.0133514404296875,0.1373291015625,0.11126200358072917,0.0031789143880208335,32.99268086751302,38.08911641438802,21.35467529296875
142,142.0,0.13415018717447916,0.0152587890625,0.022252400716145832,0.044504801432291664,40.3283437093099,36.04761759440104,29.257456461588543,35.146077473958336,39.43316141764323,0.10236104329427083,0.21107991536458334,0.1163482666015625,0.06548563639322917,37.906646728515625,22.295633951822918,24.947484334309895
143,143.0,0.22061665852864584,0.09218851725260417,0.0514984130859375,0.10172526041666667,35.20075480143229,29.225667317708332,34.92101033528646,47.03712463378906,37.46223449707031,0.07311503092447917,0.09791056315104167,0.003814697265625,0.055948893229166664,22.985458374023438,24.307886759440105,35.35779317220052
144,144.0,0.19772847493489584,0.095367431640625,0.14368693033854166,0.07502237955729167,25.906880696614582,32.67987569173177,46.43567403157552,34.11738077799479,18.437703450520832,0.13415018717447916,0.148773193359375,0.052769978841145836,0.06993611653645833,21.646499633789062,32.307942708333336,41.39518737792969
145,145.0,0.2676645914713542,0.16657511393229166,0.003814697265625,0.022252400716145832,29.04065450032552,41.20318094889323,40.158589680989586,24.812062581380207,21.9573974609375,0.19009908040364584,0.22125244140625,0.2002716064453125,0.24350484212239584,28.913497924804688,41.065216064453125,24.728139241536457
146,146.0,0.11444091796875,0.15131632486979166,0.11571248372395833,0.0782012939453125,35.11746724446615,43.1817372639974,27.737935384114582,28.852462768554688,31.867345174153645,0.13287862141927084,0.10935465494791667,0.09091695149739583,0.011444091796875,38.2684071858724,28.933207194010418,22.404988606770832
147,147.0,0.1087188720703125,0.13796488444010416,0.16848246256510416,0.006357828776041667,39.714813232421875,28.919219970703125,30.869166056315105,41.81861877441406,42.758941650390625,0.031789143880208336,0.16339619954427084,0.06612141927083333,0.15703837076822916,30.49468994140625,22.03687032063802,29.70123291015625
148,148.0,0.052134195963541664,0.08074442545572917,0.2797444661458333,0.110626220703125,28.917948404947918,29.830296834309895,40.08674621582031,42.70807902018229,25.01360575358073,0.003814697265625,0.152587890625,0.08646647135416667,0.0457763671875,20.110448201497395,27.85174051920573,40.64750671386719
149,149.0,0.14495849609375,0.0012715657552083333,0.15894571940104166,0.024159749348958332,26.051839192708332,37.19965616861979,45.73822021484375,24.028778076171875,19.266764322916668,0.09918212890625,0.22125244140625,0.2549489339192708,0.10426839192708333,24.58635965983073,38.01727294921875,33.38750203450521
150,150.0,0.052769978841145836,0.06802876790364583,0.1354217529296875,0.026067097981770832,30.901590983072918,46.007792154947914,32.962799072265625,27.677536010742188,27.368545532226562,0.09409586588541667,0.038782755533854164,0.039418538411458336,0.23587544759114584,32.98632303873698,37.450154622395836,22.060394287109375
151,151.0,0.054677327473958336,0.07120768229166667,0.029246012369791668,0.08328755696614583,40.76512654622396,34.779866536458336,28.894424438476562,36.00184122721354,39.88202412923177,0.09663899739583333,0.07502237955729167,0.16339619954427084,0.293731689453125,37.68730163574219,21.607716878255207,26.001612345377605
152,152.0,0.21044413248697916,0.03814697265625,0.1068115234375,0.21998087565104166,34.206390380859375,29.302597045898438,33.56806437174479,46.750386555989586,35.77740987141927,0.012079874674479166,0.045140584309895836,0.015894571940104168,0.23206075032552084,22.16339111328125,24.566650390625,34.962972005208336
153,153.0,0.054041544596354164,0.14241536458333334,0.008900960286458334,0.07692972819010417,25.438944498697918,33.1885019938151,46.00397745768229,32.76634216308594,18.03906758626302,0.2899169921875,0.22061665852864584,0.072479248046875,0.059763590494791664,21.849314371744793,32.9132080078125,40.79500834147135
154,154.0,0.2969106038411458,0.13415018717447916,0.019073486328125,0.06993611653645833,28.258005777994793,41.454315185546875,39.600372314453125,25.707244873046875,22.620519002278645,0.033060709635416664,0.23523966471354166,0.19900004069010416,0.2498626708984375,29.118855794270832,40.40082295735677,23.928324381510418
155,155.0,0.057220458984375,0.12334187825520833,0.1010894775390625,0.08328755696614583,35.80411275227865,41.797637939453125,27.776718139648438,31.160354614257812,33.4326426188151,0.23651123046875,0.16021728515625,0.08710225423177083,0.3299713134765625,38.2843017578125,27.558008829752605,22.704442342122395
156,156.0,0.034332275390625,0.1239776611328125,0.3643035888671875,0.040690104166666664,38.91181945800781,28.914769490559895,31.234105428059895,42.63432820638021,41.98328653971354,0.046412150065104164,0.08837381998697917,0.07120768229166667,0.16530354817708334,29.170989990234375,22.458394368489582,30.050913492838543
157,157.0,0.034968058268229164,0.044504801432291664,0.0858306884765625,0.059763590494791664,27.69152323404948,30.098597208658855,40.14460245768229,41.5198008219401,23.668289184570312,0.039418538411458336,0.2002716064453125,0.041325887044270836,0.045140584309895836,19.829432169596355,28.453826904296875,41.29219055175781
158,158.0,0.022252400716145832,0.052134195963541664,0.06548563639322917,0.023523966471354168,26.185989379882812,37.7953847249349,45.337677001953125,24.649302164713543,19.73279317220052,0.034332275390625,0.043233235677083336,0.07947285970052083,0.20726521809895834,24.71605936686198,39.075215657552086,31.892776489257812
159,159.0,0.06421407063802083,0.057220458984375,0.08138020833333333,0.1373291015625,31.215667724609375,45.618693033854164,30.824025472005207,28.055826822916668,27.940750122070312,0.08710225423177083,0.2803802490234375,0.08646647135416667,0.047047932942708336,33.52673848470052,35.700480143229164,21.394093831380207
160,160.0,0.025431315104166668,0.2676645914713542,0.031153361002604168,0.13478597005208334,39.8400624593099,34.47278340657552,28.83148193359375,37.052154541015625,40.65513610839844,0.029881795247395832,0.043233235677083336,0.09854634602864583,0.3662109375,36.6522471110026,21.543502807617188,26.04993184407552
161,161.0,0.07883707682291667,0.07883707682291667,0.011444091796875,0.15131632486979166,34.739176432291664,28.21795145670573,35.28594970703125,47.98253377278646,35.28785705566406,0.1125335693359375,0.15195210774739584,0.042597452799479164,0.141143798828125,21.901448567708332,24.297714233398438,36.509195963541664
162,162.0,0.034968058268229164,0.08519490559895833,0.125885009765625,0.0247955322265625,26.872634887695312,33.35253397623698,44.481913248697914,31.869252522786457,17.887115478515625,0.4475911458333333,0.152587890625,0.17420450846354166,0.20662943522135416,22.686004638671875,33.398946126302086,38.845062255859375
163,163.0,0.040690104166666664,0.052134195963541664,0.2155303955078125,0.202178955078125,29.393513997395832,42.88355509440104,37.60846455891927,25.262196858723957,22.621790568033855,0.047047932942708336,0.1926422119140625,0.06421407063802083,0.0362396240234375,29.36999003092448,40.644327799479164,22.528330485026043
164,164.0,0.09600321451822917,0.16911824544270834,0.06739298502604167,0.09663899739583333,36.754608154296875,41.706085205078125,28.11431884765625,31.532923380533855,34.367879231770836,0.040690104166666664,0.1544952392578125,0.1010894775390625,0.080108642578125,39.3524169921875,27.042388916015625,23.106892903645832
165,165.0,0.0762939453125,0.06421407063802083,0.11507670084635417,0.17547607421875,39.067586263020836,28.741836547851562,31.929651896158855,43.92051696777344,41.57129923502604,0.07756551106770833,0.08328755696614583,0.10172526041666667,0.047047932942708336,28.416951497395832,22.478103637695312,31.124114990234375
166,166.0,0.10808308919270833,0.0782012939453125,0.16466776529947916,0.05340576171875,27.26300557454427,30.053456624348957,41.959126790364586,40.9399668375651,23.063023885091145,0.13033548990885416,0.10744730631510417,0.0591278076171875,0.095367431640625,20.218531290690105,28.812408447265625,42.346954345703125
167,167.0,0.10045369466145833,0.141143798828125,0.2994537353515625,0.10553995768229167,27.729034423828125,38.36377461751302,45.00007629394531,24.691263834635418,19.96930440266927,0.232696533203125,0.054041544596354164,0.016530354817708332,0.020345052083333332,25.884628295898438,38.50428263346354,31.00268046061198
168,168.0,0.09473164876302083,0.033060709635416664,0.025431315104166668,0.20917256673177084,32.9736073811849,45.6085205078125,30.104319254557293,27.669906616210938,28.061548868815105,0.07120768229166667,0.1811981201171875,0.011444091796875,0.050862630208333336,35.52055358886719,35.8117421468099,21.947224934895832
169,169.0,0.029881795247395832,0.1049041748046875,0.0006357828776041666,0.037511189778645836,40.23933410644531,34.00548299153646,29.07562255859375,36.16523742675781,40.10454813639323,0.2651214599609375,0.08265177408854167,0.008265177408854166,0.062306722005208336,35.860697428385414,21.541595458984375,26.681900024414062
170,170.0,0.006993611653645833,0.16530354817708334,0.004450480143229167,0.24859110514322916,32.42619832356771,28.275807698567707,36.60774230957031,44.33631896972656,32.47642517089844,0.0667572021484375,0.0031789143880208335,0.0133514404296875,0.07502237955729167,20.444869995117188,24.581273396809895,37.807464599609375
171,171.0,0.2040863037109375,0.1277923583984375,0.064849853515625,0.027974446614583332,26.269276936848957,33.70030721028646,46.600341796875,29.956817626953125,17.438888549804688,0.148773193359375,0.1468658447265625,0.09600321451822917,0.07692972819010417,22.46411641438802,33.67487589518229,39.35559590657552
172,172.0,0.16085306803385416,0.0514984130859375,0.14623006184895834,0.05340576171875,29.399871826171875,43.05903116861979,37.465413411458336,25.969823201497395,23.108800252278645,0.22188822428385416,0.08455912272135417,0.133514404296875,0.10808308919270833,29.23901875813802,40.1159922281901,22.4761962890625
173,173.0,0.048319498697916664,0.2288818359375,0.19963582356770834,0.062306722005208336,37.799835205078125,40.653228759765625,28.369903564453125,32.63219197591146,35.350799560546875,0.11952718098958333,0.11889139811197917,0.11380513509114583,0.16148885091145834,39.744059244791664,25.918960571289062,23.907979329427082
174,174.0,0.06802876790364583,0.043233235677083336,0.1773834228515625,0.027338663736979168,39.90300496419271,28.37816874186198,32.2113037109375,44.85511779785156,41.99918111165365,0.12715657552083334,0.08455912272135417,0.07120768229166667,0.026067097981770832,27.559916178385418,22.71270751953125,31.920750935872395
175,175.0,0.095367431640625,0.08328755696614583,0.23396809895833334,0.14432271321614584,27.89624532063802,31.327565511067707,41.631062825520836,39.426167805989586,21.555582682291668,0.2549489339192708,0.4437764485677083,0.041325887044270836,0.09791056315104167,21.455764770507812,29.942830403645832,41.889190673828125
176,176.0,0.09409586588541667,0.12969970703125,0.10999043782552083,0.047047932942708336,27.16382344563802,39.08220926920573,44.361114501953125,24.681727091471355,20.144144694010418,0.041325887044270836,0.0400543212890625,0.006993611653645833,0.044504801432291664,25.599161783854168,39.670308430989586,29.605865478515625
177,177.0,0.003814697265625,0.0006357828776041666,0.0025431315104166665,0.11761983235677083,32.37787882486979,44.81188456217448,29.294967651367188,28.893152872721355,29.031753540039062,0.08646647135416667,0.012079874674479166,0.033060709635416664,0.08328755696614583,35.33299763997396,34.0264638264974,21.888097127278645
178,178.0,0.3630320231119792,0.037511189778645836,0.07692972819010417,0.038782755533854164,41.1230723063151,32.374064127604164,29.321034749348957,38.8634999593099,42.043050130208336,0.035603841145833336,0.080108642578125,0.06802876790364583,0.06548563639322917,35.16260782877604,21.58355712890625,27.336756388346355
179,179.0,0.0171661376953125,0.16848246256510416,0.008265177408854166,0.19200642903645834,32.338460286458336,28.638203938802082,37.68475850423177,44.24158732096354,31.26970926920573,0.07120768229166667,0.13669331868489584,0.08646647135416667,0.048955281575520836,20.601908365885418,24.31488037109375,38.80182902018229
180,180.0,0.08328755696614583,0.07120768229166667,0.1697540283203125,0.016530354817708332,25.53876241048177,33.130645751953125,46.65311177571615,28.725941975911457,17.771402994791668,0.027974446614583332,0.08646647135416667,0.07565816243489583,0.0006357828776041666,22.055308024088543,34.090677897135414,37.9339853922526
181,181.0,0.10999043782552083,0.10744730631510417,0.061670939127604164,0.039418538411458336,29.761632283528645,44.04004414876302,36.588033040364586,25.68817138671875,23.663838704427082,0.15195210774739584,0.0019073486328125,0.050862630208333336,0.010808308919270834,30.78778584798177,40.21263122558594,22.416432698567707
182,182.0,0.040690104166666664,0.07883707682291667,0.13796488444010416,0.08074442545572917,38.18702697753906,39.942423502604164,28.596242268880207,32.9437255859375,35.695393880208336,0.3000895182291667,0.0209808349609375,0.3070831298828125,0.0820159912109375,39.63343302408854,24.774551391601562,24.194717407226562
183,183.0,0.1583099365234375,0.11889139811197917,0.1125335693359375,0.06612141927083333,38.37267557779948,28.596878051757812,32.76507059733073,45.27600606282552,41.2286122639974,0.2638498942057292,0.2422332763671875,0.060399373372395836,0.09409586588541667,26.777267456054688,23.124059041341145,32.43573506673177
184,184.0,0.11952718098958333,0.046412150065104164,0.013987223307291666,0.10045369466145833,26.49688720703125,31.0821533203125,42.346954345703125,37.46604919433594,20.768483479817707,0.13860066731770834,0.13860066731770834,0.10617574055989583,0.034968058268229164,21.123250325520832,29.346466064453125,41.530609130859375
185,185.0,0.08519490559895833,0.07184346516927083,0.22125244140625,0.3102620442708333,26.37163798014323,39.37594095865885,43.45130920410156,24.971644083658855,20.409266153971355,0.2886454264322917,0.2040863037109375,0.019073486328125,0.031789143880208336,25.889078776041668,40.28956095377604,28.379440307617188
186,186.0,0.3452301025390625,0.0133514404296875,0.4393259684244792,0.1220703125,33.84590148925781,44.52196756998698,28.713226318359375,28.777440388997395,29.486974080403645,0.152587890625,0.050862630208333336,0.041961669921875,0.050226847330729164,36.472320556640625,32.582600911458336,22.429148356119793
187,187.0,0.0400543212890625,0.11952718098958333,0.023523966471354168,0.031789143880208336,40.435791015625,31.615575154622395,29.863357543945312,37.24861145019531,41.531880696614586,0.08900960286458333,0.07565816243489583,0.08837381998697917,0.052769978841145836,33.626556396484375,21.463394165039062,27.704874674479168
188,188.0,0.029246012369791668,0.19327799479166666,0.4374186197916667,0.08710225423177083,31.147003173828125,28.975168863932293,37.55823771158854,44.80171203613281,29.965718587239582,0.054677327473958336,0.06357828776041667,0.039418538411458336,0.0247955322265625,19.707997639973957,25.109608968098957,38.7414296468099
189,189.0,0.38909912109375,0.16466776529947916,0.014623006184895834,0.164031982421875,26.122411092122395,34.311930338541664,46.27799987792969,28.046290079752605,18.241246541341145,0.004450480143229167,0.029881795247395832,0.042597452799479164,0.14432271321614584,22.889455159505207,35.09839375813802,36.56768798828125
190,190.0,0.0133514404296875,0.25177001953125,0.16148885091145834,0.19582112630208334,30.265172322591145,44.5257822672526,35.16070048014323,27.02013651529948,24.239222208658855,0.11444091796875,0.035603841145833336,0.10426839192708333,0.08455912272135417,31.480153401692707,40.386199951171875,21.796544392903645
191,191.0,0.22252400716145834,0.10553995768229167,0.0896453857421875,0.19518534342447916,37.88884480794271,39.08983866373698,27.929306030273438,31.953175862630207,35.75770060221354,0.12334187825520833,0.1506805419921875,0.2994537353515625,0.026702880859375,38.6969248453776,23.728688557942707,23.949940999348957
192,192.0,0.09409586588541667,0.06548563639322917,0.019709269205729168,0.1430511474609375,37.02990214029948,28.46844991048177,33.39513142903646,45.316060384114586,40.496826171875,0.09918212890625,0.10426839192708333,0.048319498697916664,0.018437703450520832,25.084177652994793,23.12469482421875,33.39703877766927
193,193.0,0.012079874674479166,0.110626220703125,0.18183390299479166,0.15195210774739584,26.365280151367188,31.489054361979168,43.08001200358073,37.66949971516927,19.700368245442707,0.1354217529296875,0.0438690185546875,0.0209808349609375,0.003814697265625,21.637598673502605,30.371983846028645,41.68828328450521
194,194.0,0.034968058268229164,0.15195210774739584,0.24668375651041666,0.0934600830078125,28.680801391601562,40.575663248697914,42.650858561197914,24.964014689127605,20.934422810872395,0.014623006184895834,0.010808308919270834,0.09091695149739583,0.0019073486328125,27.5421142578125,41.30427042643229,27.419408162434895
195,195.0,0.0171661376953125,0.11698404947916667,0.08900960286458333,0.056584676106770836,34.00357564290365,44.71906026204427,28.440475463867188,29.05718485514323,29.880523681640625,0.194549560546875,0.06612141927083333,0.054041544596354164,0.013987223307291666,36.81373596191406,31.981786092122395,22.00635274251302
196,196.0,0.102996826171875,0.022252400716145832,0.05340576171875,0.061670939127604164,40.55086771647135,30.960718790690105,29.994964599609375,40.57757059733073,43.45067342122396,0.152587890625,0.0820159912109375,0.2193450927734375,0.13478597005208334,33.03718566894531,21.874109903971355,27.720133463541668
197,197.0,0.3611246744791667,0.18437703450520834,0.0591278076171875,0.10808308919270833,29.395421346028645,28.736114501953125,36.55815124511719,45.01533508300781,28.875350952148438,0.064849853515625,0.12715657552083334,0.156402587890625,0.07311503092447917,19.30999755859375,25.918960571289062,38.424173990885414
198,198.0,0.027338663736979168,0.0629425048828125,0.2848307291666667,0.056584676106770836,26.59289042154948,36.074320475260414,45.87618509928385,26.633580525716145,18.435160319010418,0.080108642578125,0.06930033365885417,0.060399373372395836,0.12143452962239583,23.881912231445312,36.59184773763021,35.46269734700521
199,199.0,0.0782012939453125,0.0209808349609375,0.040690104166666664,0.1049041748046875,30.280431111653645,45.24358113606771,34.342447916666664,26.251475016276043,24.991989135742188,0.20535786946614584,0.018437703450520832,0.2956390380859375,0.0057220458984375,31.88323974609375,39.629618326822914,21.88555399576823
200,200.0,0.020345052083333332,0.024159749348958332,0.08646647135416667,0.0591278076171875,38.82280985514323,38.15650939941406,28.036117553710938,33.97560119628906,37.33126322428385,0.02288818359375,0.005086263020833333,0.024159749348958332,0.0209808349609375,38.68738810221354,23.410797119140625,25.006612141927082
201,201.0,0.041961669921875,0.1373291015625,0.10999043782552083,0.040690104166666664,37.40628560384115,27.907689412434895,33.59858194986979,46.57554626464844,39.7796630859375,0.3496805826822917,0.2587636311848958,0.029246012369791668,0.21425882975260416,24.657567342122395,23.213704427083332,33.727010091145836
202,202.0,0.18056233723958334,0.11761983235677083,0.1659393310546875,0.045140584309895836,26.178359985351562,31.8145751953125,43.642679850260414,36.15697224934896,19.22162373860677,0.034968058268229164,0.0057220458984375,0.21044413248697916,0.0057220458984375,21.254221598307293,30.607223510742188,41.35322570800781
203,203.0,0.061670939127604164,0.13987223307291666,0.13478597005208334,0.026702880859375,27.520497639973957,40.53624471028646,41.49055480957031,24.859110514322918,21.523157755533855,0.15703837076822916,0.061670939127604164,0.0705718994140625,0.0972747802734375,27.429580688476562,41.292826334635414,26.813507080078125
204,204.0,0.07565816243489583,0.09282430013020833,0.0095367431640625,0.07375081380208333,34.37042236328125,45.14312744140625,28.649648030598957,30.054728190104168,31.32947285970052,0.012079874674479166,0.21425882975260416,0.0457763671875,0.22951761881510416,36.98603312174479,31.319936116536457,22.196451822916668
205,205.0,0.6039937337239584,0.0438690185546875,0.0476837158203125,0.045140584309895836,40.92089335123698,30.164082845052082,30.074437459309895,40.73143005371094,43.53141784667969,0.09028116861979167,0.0209808349609375,0.2606709798177083,0.026067097981770832,32.20240275065104,21.83087666829427,28.921127319335938
206,206.0,0.10617574055989583,0.110626220703125,0.047047932942708336,0.23905436197916666,29.785792032877605,29.817581176757812,39.26976521809896,44.60589090983073,27.961095174153645,0.008900960286458334,0.062306722005208336,0.141143798828125,0.11444091796875,19.828160603841145,26.96545918782552,40.019989013671875
207,207.0,0.004450480143229167,0.17038981119791666,0.2498626708984375,0.0025431315104166665,26.37163798014323,35.352071126302086,46.16610209147135,26.14275614420573,18.774668375651043,0.15385945638020834,0.2797444661458333,0.06866455078125,0.0667572021484375,23.81579081217448,36.32990519205729,34.82818603515625
208,208.0,0.12842814127604166,0.1316070556640625,0.029881795247395832,0.06548563639322917,31.129837036132812,44.89962259928385,33.68441263834635,26.949564615885418,25.757471720377605,0.08710225423177083,0.232696533203125,0.043233235677083336,0.054677327473958336,32.38487243652344,38.77830505371094,21.640777587890625
209,209.0,0.038782755533854164,0.016530354817708332,0.2962748209635417,0.4507700602213542,40.0396982828776,37.30583190917969,28.130849202473957,35.35779317220052,37.97785441080729,0.2606709798177083,0.24731953938802084,0.0019073486328125,0.14495849609375,38.584391276041664,22.801717122395832,24.636586507161457
210,210.0,0.232696533203125,0.2905527750651042,0.17674763997395834,0.06993611653645833,36.06986999511719,28.430938720703125,33.86751810709635,47.650655110677086,39.21635945638021,0.141143798828125,0.08710225423177083,0.019709269205729168,0.13287862141927084,23.709615071614582,24.064381917317707,34.23627217610677
211,211.0,0.0209808349609375,0.03814697265625,0.1697540283203125,0.00762939453125,25.709788004557293,32.44717915852865,43.0609385172526,33.329010009765625,17.33716328938802,0.2307891845703125,0.016530354817708332,0.11126200358072917,0.11507670084635417,20.913441975911457,31.652450561523438,40.2838389078776
212,212.0,0.11507670084635417,0.13478597005208334,0.1010894775390625,0.03814697265625,28.785069783528645,41.60944620768229,40.224711100260414,24.562835693359375,21.589914957682293,0.091552734375,0.008265177408854166,0.4711151123046875,0.05340576171875,28.093338012695312,41.5795644124349,25.446573893229168
213,213.0,0.0762939453125,0.020345052083333332,0.0057220458984375,0.2269744873046875,35.79839070638021,44.68854268391927,28.3355712890625,29.839197794596355,32.360076904296875,0.054041544596354164,0.039418538411458336,0.07756551106770833,0.0591278076171875,37.94097900390625,30.443827311197918,22.70952860514323
214,214.0,0.12842814127604166,0.019709269205729168,0.027338663736979168,0.0057220458984375,38.79102071126302,29.249827067057293,30.588150024414062,39.9932861328125,42.17529296875,0.027974446614583332,0.07947285970052083,0.014623006184895834,0.18755594889322916,30.663172403971355,21.994908650716145,29.273351033528645
215,215.0,0.2733866373697917,0.3153483072916667,0.06802876790364583,0.400543212890625,29.206593831380207,29.61285909016927,38.8641357421875,43.87092590332031,26.625951131184895,0.07947285970052083,0.12842814127604166,0.012079874674479166,0.08710225423177083,19.812901814778645,26.414235432942707,40.130615234375
216,216.0,0.033060709635416664,0.3096262613932292,0.0705718994140625,0.1068115234375,27.155558268229168,36.65479024251302,45.864105224609375,25.55084228515625,19.149144490559895,0.030517578125,0.16339619954427084,0.059763590494791664,0.10045369466145833,24.49798583984375,37.937164306640625,33.72764587402344
217,217.0,0.17484029134114584,0.003814697265625,0.047047932942708336,0.1888275146484375,32.27361043294271,46.06755574544271,32.46879577636719,27.031580607096355,25.384902954101562,0.1163482666015625,0.21870930989583334,0.3248850504557292,0.102996826171875,33.43009948730469,38.08720906575521,21.521250406901043
218,218.0,0.07120768229166667,0.23206075032552084,0.11316935221354167,0.019073486328125,39.65632120768229,36.32481892903646,29.024124145507812,35.443623860677086,39.929707845052086,0.22824605305989584,0.133514404296875,0.042597452799479164,0.061670939127604164,37.935892740885414,22.65612284342448,25.733311971028645
219,219.0,0.11571248372395833,0.0438690185546875,0.030517578125,0.17547607421875,35.755157470703125,28.921127319335938,34.726460774739586,47.1343994140625,37.56078084309896,0.06930033365885417,0.2606709798177083,0.010808308919270834,0.07565816243489583,22.757848103841145,24.356842041015625,34.73345438639323
220,220.0,0.1049041748046875,0.16721089680989584,0.17038981119791666,0.16339619954427084,26.014963785807293,32.79685974121094,44.64403788248698,34.014383951822914,18.274307250976562,0.19518534342447916,0.09791056315104167,0.08074442545572917,0.08328755696614583,21.976470947265625,32.306671142578125,40.98320007324219
221,221.0,0.06993611653645833,0.020345052083333332,0.1125335693359375,0.12079874674479167,28.807322184244793,42.18482971191406,39.63661193847656,23.529688517252605,21.06157938639323,0.0820159912109375,0.034332275390625,0.057856241861979164,0.08646647135416667,28.608322143554688,41.51280721028646,24.384180704752605
222,222.0,0.0629425048828125,0.2695719401041667,0.080108642578125,0.13097127278645834,35.01065572102865,43.28727722167969,28.125762939453125,30.384063720703125,32.69513448079427,0.040690104166666664,0.12079874674479167,0.2740224202473958,0.1087188720703125,37.84624735514323,28.877894083658855,22.653579711914062
223,223.0,0.034332275390625,0.08392333984375,0.0025431315104166665,0.09282430013020833,40.80899556477865,29.197057088216145,31.144460042317707,42.72015889485677,42.897542317708336,0.0152587890625,0.008265177408854166,0.3566741943359375,0.057220458984375,30.573527018229168,22.426605224609375,29.832204182942707
224,224.0,0.052134195963541664,0.186920166015625,0.057856241861979164,0.06930033365885417,28.722127278645832,30.403772989908855,39.87693786621094,43.03868611653646,25.306065877278645,0.012715657552083334,0.10363260904947917,0.1468658447265625,0.11889139811197917,19.963582356770832,27.35582987467448,41.049957275390625
225,225.0,0.1392364501953125,0.17547607421875,0.10363260904947917,0.06103515625,26.056925455729168,38.118998209635414,45.82659403483073,24.05103047688802,18.857955932617188,0.1087188720703125,0.036875406901041664,0.0247955322265625,0.2422332763671875,24.291356404622395,38.4979248046875,32.47515360514323
226,226.0,0.041325887044270836,0.041961669921875,0.0476837158203125,0.041325887044270836,31.585057576497395,45.703887939453125,32.01484680175781,25.95202128092448,25.751749674479168,0.12715657552083334,0.014623006184895834,0.3070831298828125,0.06739298502604167,33.43391418457031,36.71709696451823,21.775563557942707
227,227.0,0.15131632486979166,0.5467732747395834,0.0247955322265625,0.12524922688802084,40.372212727864586,35.39339701334635,28.500874837239582,36.50983174641927,40.44342041015625,0.0012715657552083333,0.11507670084635417,0.08328755696614583,0.06357828776041667,38.050333658854164,21.753311157226562,25.716145833333332
228,228.0,0.08710225423177083,0.062306722005208336,0.21107991536458334,0.08900960286458333,35.35270690917969,28.760910034179688,34.01311238606771,46.86609903971354,35.66106160481771,0.1773834228515625,0.1277923583984375,0.11571248372395833,0.037511189778645836,22.347132364908855,24.258931477864582,35.07232666015625
229,229.0,0.0324249267578125,0.0133514404296875,0.008265177408854166,0.0133514404296875,26.991526285807293,33.56806437174479,44.77373758951823,31.185150146484375,16.704559326171875,0.1659393310546875,0.3604888916015625,0.031789143880208336,0.043233235677083336,22.704442342122395,33.67424011230469,40.19292195638021
230,230.0,0.21107991536458334,0.06993611653645833,0.034332275390625,0.07502237955729167,29.130299886067707,43.28346252441406,39.19156392415365,24.949391682942707,22.258758544921875,0.2600351969401042,0.06103515625,0.040690104166666664,0.16021728515625,29.093424479166668,41.515350341796875,23.774464925130207
231,231.0,0.019709269205729168,0.037511189778645836,0.072479248046875,0.040690104166666664,35.93635559082031,42.95476277669271,27.938206990559895,30.869166056315105,33.6297353108724,0.11952718098958333,0.14050801595052084,0.3274281819661458,0.026067097981770832,38.60155741373698,28.05646260579427,23.37646484375
232,232.0,0.033060709635416664,0.10999043782552083,0.019709269205729168,0.020345052083333332,39.249420166015625,28.914769490559895,31.68805440266927,41.36530558268229,40.99273681640625,0.20090738932291666,0.2562204996744792,0.13287862141927084,0.22443135579427084,29.005686442057293,22.682825724283855,30.771255493164062
233,233.0,0.048319498697916664,0.17293294270833334,0.15958150227864584,0.080108642578125,27.76781717936198,31.113942464192707,40.74223836263021,40.51907857259115,23.001352945963543,0.17293294270833334,0.027338663736979168,0.1068115234375,0.005086263020833333,20.009994506835938,27.962366739908855,41.49945576985677
234,234.0,0.09600321451822917,0.10808308919270833,0.1201629638671875,0.2663930257161458,26.552836100260418,37.65042622884115,46.109517415364586,24.83685811360677,19.69464619954427,0.050862630208333336,0.06930033365885417,0.10808308919270833,0.0438690185546875,24.982452392578125,38.88702392578125,31.720479329427082
235,235.0,0.263214111328125,0.24159749348958334,0.1010894775390625,0.18183390299479166,31.648635864257812,45.47246297200521,30.5023193359375,28.380076090494793,27.711868286132812,0.179290771484375,0.0591278076171875,0.06866455078125,0.0006357828776041666,33.53118896484375,35.83208719889323,21.71007792154948
236,236.0,0.030517578125,0.042597452799479164,0.006357828776041667,0.17992655436197916,40.17829895019531,34.28332010904948,29.034932454427082,36.41510009765625,40.2367909749349,0.15576680501302084,0.06739298502604167,0.20090738932291666,0.16848246256510416,37.02735900878906,21.375020345052082,26.300430297851562
237,237.0,0.042597452799479164,0.026067097981770832,0.09854634602864583,0.1773834228515625,33.88849894205729,28.258641560872395,35.38703918457031,46.001434326171875,33.72637430826823,0.15513102213541666,0.3102620442708333,0.15703837076822916,0.21616617838541666,21.570841471354168,24.73894755045573,36.2237294514974
238,238.0,0.14559427897135416,0.240325927734375,0.06357828776041667,0.038782755533854164,26.438395182291668,33.21266174316406,45.56147257486979,31.311670939127605,17.747243245442707,0.0457763671875,0.22188822428385416,0.10045369466145833,0.0006357828776041666,22.397994995117188,33.52991739908854,39.98692830403646
239,239.0,0.12524922688802084,0.0934600830078125,0.0667572021484375,0.026702880859375,29.638926188151043,43.459574381510414,38.12217712402344,23.995717366536457,21.906534830729168,0.045140584309895836,0.13033548990885416,0.16657511393229166,0.0286102294921875,29.753367106119793,40.966033935546875,22.95239766438802
240,240.0,0.17611185709635416,0.012715657552083334,0.02288818359375,0.052134195963541664,37.1551513671875,41.852315266927086,28.429031372070312,31.909942626953125,34.14344787597656,0.2269744873046875,0.110626220703125,0.20662943522135416,0.23587544759114584,39.42235310872396,26.98516845703125,23.567835489908855
241,241.0,0.13415018717447916,0.1049041748046875,0.0476837158203125,0.091552734375,38.768768310546875,28.151194254557293,31.761805216471355,42.460123697916664,41.00481669108073,0.0006357828776041666,0.15894571940104166,0.07947285970052083,0.13605753580729166,27.855555216471355,22.340774536132812,30.881245930989582
242,242.0,0.3178914388020833,0.014623006184895834,0.11698404947916667,0.006357828776041667,27.930577596028645,30.951182047526043,40.87638854980469,40.662129720052086,22.623697916666668,0.08837381998697917,0.0019073486328125,0.037511189778645836,0.0476837158203125,20.836512247721355,28.207778930664062,41.84087117513021
243,243.0,0.06357828776041667,0.029246012369791668,0.1068115234375,0.22252400716145834,26.659011840820312,38.388570149739586,44.82142130533854,25.389353434244793,20.367940266927082,0.054677327473958336,0.036875406901041664,0.08138020833333333,0.036875406901041664,25.20306905110677,39.1839345296224,30.440012613932293
244,244.0,0.2962748209635417,0.02288818359375,0.14050801595052084,0.057856241861979164,32.0746103922526,45.49725850423177,29.528299967447918,28.148651123046875,28.061548868815105,0.11507670084635417,0.08074442545572917,0.11761983235677083,0.057220458984375,34.7900390625,35.381317138671875,21.711985270182293
245,245.0,0.1850128173828125,0.022252400716145832,0.3083546956380208,0.0934600830078125,40.66594441731771,33.35380554199219,28.7017822265625,37.91999816894531,41.11417134602865,0.12524922688802084,0.171661376953125,0.07311503092447917,0.031789143880208336,36.74125671386719,21.575291951497395,26.628494262695312
246,246.0,0.017801920572916668,0.1678466796875,0.3407796223958333,0.07184346516927083,34.779866536458336,28.199513753255207,35.80665588378906,46.05738321940104,32.9748789469401,0.14940897623697916,0.010808308919270834,0.1239776611328125,0.057856241861979164,21.419525146484375,24.87945556640625,37.272135416666664
247,247.0,0.08837381998697917,0.1010894775390625,0.07184346516927083,0.008900960286458334,26.885350545247395,34.17778015136719,45.73758443196615,30.676523844401043,17.85723368326823,0.003814697265625,0.18946329752604166,0.1811981201171875,0.06739298502604167,22.97655741373698,34.258524576822914,39.1693115234375
248,248.0,0.12143452962239583,0.017801920572916668,0.014623006184895834,0.0019073486328125,30.622482299804688,43.736775716145836,37.87676493326823,25.757471720377605,23.446400960286457,0.12969970703125,0.09218851725260417,0.0031789143880208335,0.0514984130859375,30.661900838216145,40.5432383219401,23.02233378092448
249,249.0,0.186920166015625,0.141143798828125,0.006357828776041667,0.171661376953125,36.661783854166664,39.638519287109375,28.383255004882812,30.946095784505207,34.06206766764323,0.09854634602864583,0.11889139811197917,0.08328755696614583,0.09981791178385417,38.775126139322914,25.40906270345052,23.78527323404948
250,250.0,0.07502237955729167,0.11952718098958333,0.13860066731770834,0.1316070556640625,38.6199951171875,27.700424194335938,31.675974527994793,44.40180460611979,41.570027669270836,0.13224283854166666,0.02288818359375,0.2918243408203125,0.13669331868489584,27.09515889485677,22.187550862630207,31.43755594889323
251,251.0,0.012715657552083334,0.1010894775390625,0.10045369466145833,0.027338663736979168,26.00542704264323,30.782699584960938,40.8484141031901,39.23797607421875,21.508534749348957,0.21680196126302084,0.23587544759114584,0.02288818359375,0.022252400716145832,20.126978556315105,28.569539388020832,41.351318359375
252,252.0,0.048319498697916664,0.00762939453125,0.2810160319010417,0.035603841145833336,27.374267578125,38.97794087727865,44.61987813313802,24.44775899251302,20.200729370117188,0.08265177408854167,0.06866455078125,0.008900960286458334,0.13478597005208334,25.88653564453125,39.791107177734375,29.11376953125
253,253.0,0.037511189778645836,0.0012715657552083333,0.11126200358072917,0.026067097981770832,33.74799092610677,45.261383056640625,29.287974039713543,27.423858642578125,27.726491292317707,0.12334187825520833,0.13224283854166666,0.13605753580729166,0.047047932942708336,36.365509033203125,34.40411885579427,22.085825602213543
254,254.0,0.0705718994140625,0.026702880859375,0.005086263020833333,0.2683003743489583,41.67493184407552,33.14336140950521,29.319127400716145,38.55450948079427,41.72960917154948,0.07692972819010417,0.16911824544270834,0.3528594970703125,0.0782012939453125,36.18748982747396,21.51044209798177,26.853561401367188
255,255.0,0.1983642578125,0.09091695149739583,0.1544952392578125,0.11444091796875,32.559712727864586,28.86199951171875,36.418914794921875,46.01923624674479,32.35626220703125,0.08455912272135417,0.08265177408854167,0.19137064615885416,0.0514984130859375,20.70935567220052,25.289535522460938,37.92572021484375
256,256.0,0.039418538411458336,0.052134195963541664,0.14432271321614584,0.0457763671875,26.388804117838543,34.58849589029948,45.20225524902344,28.540293375651043,17.46050516764323,0.06739298502604167,0.07502237955729167,0.07311503092447917,0.12270609537760417,22.759119669596355,34.62092081705729,37.31981913248698
257,257.0,0.07692972819010417,0.026067097981770832,0.07375081380208333,0.048319498697916664,29.55309549967448,44.148763020833336,35.6286366780599,25.53876241048177,22.825241088867188,0.0209808349609375,0.316619873046875,0.0438690185546875,0.022252400716145832,30.567169189453125,40.41735331217448,21.811167399088543
258,258.0,0.20281473795572916,0.052134195963541664,0.13605753580729166,0.0006357828776041666,37.11700439453125,39.276123046875,27.631123860677082,32.931009928385414,35.66741943359375,0.13605753580729166,0.026702880859375,0.003814697265625,0.0006357828776041666,38.96903991699219,24.575551350911457,23.484547932942707
259,259.0,0.021616617838541668,0.013987223307291666,0.133514404296875,0.0006357828776041666,38.62889607747396,28.745651245117188,32.18396504720052,45.05729675292969,41.22225443522135,0.019709269205729168,0.09091695149739583,0.0553131103515625,0.0743865966796875,26.611328125,22.907257080078125,32.14581807454427
260,260.0,0.08900960286458333,0.09663899739583333,0.0667572021484375,0.20726521809895834,26.445388793945312,31.253814697265625,42.16321309407552,38.494110107421875,20.983378092447918,0.12715657552083334,0.1735687255859375,0.0133514404296875,0.059763590494791664,20.82506815592448,29.439290364583332,41.83387756347656
261,261.0,0.08646647135416667,0.059763590494791664,0.07120768229166667,0.012079874674479166,27.598063151041668,39.30791219075521,43.82451375325521,24.861653645833332,20.524342854817707,0.18946329752604166,0.0095367431640625,0.3350575764973958,0.015894571940104168,26.487350463867188,39.98120625813802,28.339385986328125
262,262.0,0.03814697265625,0.17611185709635416,0.003814697265625,0.18755594889322916,33.660888671875,44.64848836263021,28.829574584960938,29.08643086751302,29.288609822591145,0.19518534342447916,0.12143452962239583,0.020345052083333332,0.0362396240234375,36.547342936197914,33.13509623209635,22.25494384765625
263,263.0,0.05340576171875,0.025431315104166668,0.0057220458984375,0.0743865966796875,41.1370595296224,32.03137715657552,28.777440388997395,39.89283243815104,42.83777872721354,0.0553131103515625,0.1392364501953125,0.048319498697916664,0.20345052083333334,35.144805908203125,21.497726440429688,27.413050333658855
264,264.0,0.029246012369791668,0.033060709635416664,0.06866455078125,0.09028116861979167,32.772064208984375,28.825124104817707,36.96314493815104,45.351664225260414,30.5023193359375,0.3452301025390625,0.036875406901041664,0.1010894775390625,0.21807352701822916,20.917892456054688,25.45928955078125,38.55768839518229
265,265.0,0.0400543212890625,0.4482269287109375,0.3770192464192708,0.029246012369791668,26.227951049804688,35.33744812011719,46.79171244303385,28.809229532877605,18.4783935546875,0.027338663736979168,0.010808308919270834,0.2117156982421875,0.2193450927734375,22.780736287434895,35.81555684407552,37.44316101074219
266,266.0,0.08900960286458333,0.10553995768229167,0.015894571940104168,0.0006357828776041666,28.94147237141927,44.51560974121094,35.648345947265625,24.274190266927082,23.506800333658855,0.2117156982421875,0.006993611653645833,0.0743865966796875,0.0286102294921875,30.620574951171875,40.42371114095052,21.871566772460938
267,267.0,0.21870930989583334,0.09409586588541667,0.09791056315104167,0.1392364501953125,38.03825378417969,39.57684834798177,27.915318806966145,33.30103556315104,36.18176778157552,0.037511189778645836,0.17611185709635416,0.10808308919270833,0.13097127278645834,38.78974914550781,24.218241373697918,23.919423421223957
268,268.0,0.08328755696614583,0.08900960286458333,0.08392333984375,0.13224283854166666,37.14561462402344,28.230667114257812,32.96597798665365,44.93522644042969,40.58647155761719,0.11952718098958333,0.06357828776041667,0.232696533203125,0.3223419189453125,25.032679239908855,23.164749145507812,32.93482462565104
269,269.0,0.013987223307291666,0.16911824544270834,0.1659393310546875,0.1354217529296875,26.06201171875,31.272252400716145,42.833964029947914,37.72862752278646,19.866943359375,0.07311503092447917,0.09218851725260417,0.14177958170572916,0.006993611653645833,20.41943868001302,29.54419453938802,41.5045420328776
270,270.0,0.17547607421875,0.0057220458984375,0.13860066731770834,0.08646647135416667,43.56257120768229,40.8941904703776,41.470845540364586,24.815877278645832,21.066029866536457,0.0705718994140625,0.010808308919270834,0.202178955078125,0.0667572021484375,37.6739501953125,41.44732157389323,26.199976603190105
271,271.0,0.16276041666666666,0.17102559407552084,0.052769978841145836,0.026702880859375,37.85896301269531,44.7998046875,27.762095133463543,29.166539510091145,29.28479512532552,0.2346038818359375,0.1354217529296875,0.0025431315104166665,0.09981791178385417,38.98811340332031,32.28569030761719,21.748860677083332
272,272.0,0.0457763671875,0.12969970703125,0.0006357828776041666,0.0012715657552083333,41.11353556315104,30.970255533854168,29.47998046875,39.972941080729164,42.781829833984375,0.21489461263020834,0.11380513509114583,0.011444091796875,0.06993611653645833,33.85289510091146,21.703084309895832,27.853012084960938
273,273.0,0.037511189778645836,0.15195210774739584,0.13796488444010416,0.12079874674479167,30.752817789713543,29.259999593098957,37.40819295247396,45.23595174153646,29.490152994791668,0.06103515625,0.507354736328125,0.061670939127604164,0.17611185709635416,19.791920979817707,25.976816813151043,38.784027099609375
274,274.0,0.029881795247395832,0.18755594889322916,0.0006357828776041666,0.13605753580729166,26.586532592773438,35.52945454915365,46.056111653645836,27.89751688639323,18.723805745442707,0.022252400716145832,0.2683003743489583,0.0171661376953125,0.011444091796875,23.62505594889323,35.81110636393229,36.03235880533854
275,275.0,0.044504801432291664,0.08328755696614583,0.2002716064453125,0.3579457600911458,30.005137125651043,44.82205708821615,34.23182169596354,25.28063456217448,24.102528889973957,0.0286102294921875,0.10363260904947917,0.0152587890625,0.0133514404296875,31.64354960123698,39.66649373372396,21.743138631184895
276,276.0,0.045140584309895836,0.10172526041666667,0.0782012939453125,0.0025431315104166665,37.439982096354164,38.37458292643229,28.207778930664062,34.17078653971354,37.37831115722656,0.0438690185546875,0.03814697265625,0.18374125162760416,0.06103515625,38.02490234375,23.340225219726562,24.237314860026043
277,277.0,0.14177958170572916,0.08519490559895833,0.13796488444010416,0.3261566162109375,38.16668192545573,27.947743733723957,31.91375732421875,46.32441202799479,40.646870930989586,0.186920166015625,0.039418538411458336,0.022252400716145832,0.059763590494791664,24.910608927408855,23.167928059895832,32.75362650553385
278,278.0,0.055948893229166664,0.2702077229817708,0.13478597005208334,0.033696492513020836,26.031494140625,32.68241882324219,42.797088623046875,36.54670715332031,19.041061401367188,0.07565816243489583,0.06612141927083333,0.057220458984375,0.217437744140625,21.225611368815105,30.327479044596355,40.64623514811198
279,279.0,0.10808308919270833,0.0457763671875,0.024159749348958332,0.2880096435546875,27.60632832845052,40.62652587890625,41.81734720865885,24.598439534505207,21.402994791666668,0.034968058268229164,0.11761983235677083,0.06612141927083333,0.048319498697916664,27.295430501302082,41.216532389322914,26.171366373697918
280,280.0,0.09218851725260417,0.09473164876302083,0.005086263020833333,0.2854665120442708,34.76842244466146,44.963836669921875,28.18743387858073,29.809315999348957,30.487696329752605,0.1678466796875,0.0006357828776041666,0.03814697265625,0.11126200358072917,37.189483642578125,31.404495239257812,22.169113159179688
281,281.0,0.011444091796875,0.3484090169270833,0.07311503092447917,0.3108978271484375,41.01435343424479,30.487060546875,29.50286865234375,39.32380676269531,42.91343688964844,0.012715657552083334,0.029881795247395832,0.0006357828776041666,0.12270609537760417,33.344268798828125,21.787643432617188,28.235753377278645
282,282.0,0.16721089680989584,0.008265177408854166,0.10045369466145833,0.03814697265625,30.408859252929688,29.275894165039062,38.04588317871094,44.54485575358073,28.023401896158855,0.02288818359375,0.0247955322265625,0.02288818359375,0.034968058268229164,19.788742065429688,26.766459147135418,39.337158203125
283,283.0,0.026067097981770832,0.3032684326171875,0.24668375651041666,0.033696492513020836,26.275634765625,36.20465596516927,45.69880167643229,24.77709452311198,17.824172973632812,0.09663899739583333,0.14623006184895834,0.049591064453125,0.10553995768229167,23.564656575520832,37.30964660644531,35.143534342447914
284,284.0,0.0209808349609375,0.2797444661458333,0.08455912272135417,0.11507670084635417,30.077616373697918,45.59961954752604,33.45425923665365,25.923411051432293,25.442123413085938,0.0934600830078125,0.14432271321614584,0.0095367431640625,0.21489461263020834,31.747182210286457,39.52725728352865,21.306991577148438
285,285.0,0.14050801595052084,0.1621246337890625,0.033696492513020836,0.012079874674479166,39.27930196126302,37.46732076009115,28.785069783528645,34.56815083821615,38.14506530761719,0.0152587890625,0.061670939127604164,0.027338663736979168,0.0133514404296875,38.61045837402344,22.626876831054688,24.600982666015625
286,286.0,0.0514984130859375,0.0286102294921875,0.164031982421875,0.21298726399739584,37.61736551920573,27.856826782226562,33.7835947672526,46.36319478352865,39.12353515625,0.10045369466145833,0.0896453857421875,0.0286102294921875,0.047047932942708336,24.019241333007812,23.787180582682293,33.816019694010414
287,287.0,0.1354217529296875,0.0057220458984375,0.07120768229166667,0.18056233723958334,26.05438232421875,32.67033894856771,44.12968953450521,34.73027547200521,17.900466918945312,0.16911824544270834,0.1220703125,0.11507670084635417,0.21870930989583334,21.315256754557293,30.991236368815105,41.07348124186198
288,288.0,0.11952718098958333,0.06548563639322917,0.010808308919270834,0.10553995768229167,27.727762858072918,40.52162170410156,41.45113627115885,25.384267171223957,21.8658447265625,0.2155303955078125,0.24541219075520834,0.16657511393229166,0.047047932942708336,27.44738260904948,41.12116495768229,25.733311971028645
289,289.0,0.057220458984375,0.003814697265625,0.0133514404296875,0.06357828776041667,35.42009989420573,44.445037841796875,27.99669901529948,30.718485514322918,31.072616577148438,0.0457763671875,0.17229715983072916,0.23778279622395834,0.06866455078125,38.04715474446615,30.424118041992188,22.438685099283855
290,290.0,0.2702077229817708,0.0514984130859375,0.09091695149739583,0.0286102294921875,40.20563761393229,29.468536376953125,30.309677124023438,40.95013936360677,43.45130920410156,0.017801920572916668,0.018437703450520832,0.09600321451822917,0.052769978841145836,32.27678934733073,21.811167399088543,29.099782307942707
291,291.0,0.1277923583984375,0.09981791178385417,0.025431315104166668,0.0006357828776041666,30.793507893880207,29.083887736002605,38.738250732421875,43.8079833984375,26.770273844401043,0.0553131103515625,0.354766845703125,0.0514984130859375,0.1087188720703125,20.463307698567707,26.531219482421875,40.201822916666664
292,292.0,0.043233235677083336,0.015894571940104168,0.13860066731770834,0.14750162760416666,26.43140157063802,35.69348653157552,45.39680480957031,24.832407633463543,19.00037129720052,0.029881795247395832,0.0012715657552083333,0.13415018717447916,0.1010894775390625,23.778915405273438,36.853790283203125,34.42064921061198
293,293.0,0.025431315104166668,0.044504801432291664,0.16339619954427084,0.052134195963541664,31.171162923177082,45.794169108072914,33.14081827799479,26.262283325195312,25.525410970052082,0.08392333984375,0.033696492513020836,0.046412150065104164,0.057220458984375,32.7765146891276,38.63398234049479,21.454493204752605
294,294.0,0.064849853515625,0.06993611653645833,0.2638498942057292,0.08265177408854167,39.02435302734375,37.44824727376302,29.010772705078125,35.30120849609375,38.976033528645836,0.0514984130859375,0.056584676106770836,0.17038981119791666,0.16530354817708334,37.822723388671875,22.88500467936198,25.330225626627605
295,295.0,0.2460479736328125,0.09918212890625,0.031153361002604168,0.11571248372395833,34.275054931640625,27.8167724609375,33.84971618652344,46.5844472249349,37.85133361816406,0.20917256673177084,0.11698404947916667,0.14495849609375,0.061670939127604164,22.194544474283855,23.284912109375,34.214019775390625
296,296.0,0.048955281575520836,0.026067097981770832,0.033060709635416664,0.0553131103515625,25.836944580078125,32.596588134765625,43.72406005859375,33.977508544921875,18.149058024088543,0.048955281575520836,0.091552734375,0.2740224202473958,0.1697540283203125,21.252950032552082,30.672709147135418,40.753682454427086
297,297.0,0.15004475911458334,0.2899169921875,0.07947285970052083,0.17484029134114584,29.247283935546875,41.50517781575521,40.77275594075521,26.426315307617188,23.022969563802082,0.4533131917317708,0.110626220703125,0.014623006184895834,0.054677327473958336,28.75073750813802,41.42951965332031,24.461110432942707
298,298.0,0.13860066731770834,0.09663899739583333,0.06739298502604167,0.0362396240234375,35.7367197672526,44.39417521158854,26.947021484375,31.237284342447918,31.733194986979168,0.06103515625,0.08900960286458333,0.22061665852864584,0.029246012369791668,37.90855407714844,30.07189432779948,21.287918090820312
299,299.0,0.102996826171875,0.110626220703125,0.0209808349609375,0.1811981201171875,39.594014485677086,29.335657755533855,30.700047810872395,41.91907246907552,42.87910461425781,0.091552734375,0.20535786946614584,0.217437744140625,0.14495849609375,31.335194905598957,22.361119588216145,29.54419453938802
300,300.0,0.11761983235677083,0.062306722005208336,0.09282430013020833,0.1392364501953125,30.30840555826823,29.19324239095052,39.028167724609375,42.36412048339844,25.03649393717448,0.0820159912109375,0.2117156982421875,0.148773193359375,0.18374125162760416,20.375569661458332,27.0233154296875,40.47266642252604
301,301.0,0.040690104166666664,0.10935465494791667,0.055948893229166664,0.09663899739583333,26.445388793945312,36.60265604654948,45.34784952799479,24.588902791341145,18.823623657226562,0.13860066731770834,0.17865498860677084,0.0782012939453125,0.041325887044270836,24.820327758789062,37.90283203125,33.76134236653646
302,302.0,0.06548563639322917,0.036875406901041664,0.14177958170572916,0.17038981119791666,31.574249267578125,45.415242513020836,32.13691711425781,26.72259012858073,26.091893513997395,0.0438690185546875,0.0743865966796875,0.13415018717447916,0.2193450927734375,32.63219197591146,37.5525156656901,21.692276000976562
303,303.0,0.019709269205729168,0.22633870442708334,0.14940897623697916,0.054041544596354164,39.30091857910156,36.23517354329427,28.848648071289062,35.474141438802086,39.57939147949219,0.0012715657552083333,0.12461344401041667,0.052134195963541664,0.148773193359375,37.98802693684896,22.270838419596355,25.557835896809895
304,304.0,0.0476837158203125,0.10363260904947917,0.034332275390625,0.133514404296875,35.33744812011719,28.292338053385418,35.20647684733073,45.572916666666664,36.28222147623698,0.0019073486328125,0.3223419189453125,0.09981791178385417,0.033060709635416664,22.230148315429688,24.129231770833332,35.03990173339844
305,305.0,0.4030863444010417,0.033060709635416664,0.02288818359375,0.050226847330729164,25.632858276367188,32.552083333333336,44.59826151529948,33.54771931966146,17.714182535807293,0.1220703125,0.3789265950520833,0.045140584309895836,0.015894571940104168,21.7132568359375,31.963348388671875,40.812174479166664
306,306.0,0.046412150065104164,0.061670939127604164,0.0095367431640625,0.23333231608072916,28.932571411132812,41.936238606770836,39.81653849283854,24.90552266438802,22.317886352539062,0.06357828776041667,0.050226847330729164,0.15131632486979166,0.043233235677083336,28.829574584960938,41.37738545735677,24.163564046223957
307,307.0,0.354766845703125,0.036875406901041664,0.012715657552083334,0.08265177408854167,35.40611267089844,43.111165364583336,28.183619181315105,30.22448221842448,32.993316650390625,0.033696492513020836,0.011444091796875,0.225067138671875,0.14368693033854166,38.39556376139323,28.656005859375,22.91552225748698
308,308.0,0.18310546875,0.012715657552083334,0.2422332763671875,0.0400543212890625,38.26077779134115,27.62158711751302,31.61938985188802,42.52751668294271,42.537689208984375,0.1201629638671875,0.12079874674479167,0.07120768229166667,0.08138020833333333,29.91930643717448,21.45830790201823,30.319849650065105
309,309.0,0.2511342366536458,0.06739298502604167,0.16721089680989584,0.14750162760416666,29.250462849934895,29.69042460123698,40.02825419108073,43.35212707519531,25.198618570963543,0.09218851725260417,0.3026326497395833,0.004450480143229167,0.1068115234375,20.439783732096355,27.803421020507812,40.966033935546875
310,310.0,0.11380513509114583,0.059763590494791664,0.13287862141927084,0.08265177408854167,26.100794474283855,36.28349304199219,45.14122009277344,24.871826171875,19.297281901041668,0.23142496744791666,0.10172526041666667,0.0782012939453125,0.061670939127604164,24.317423502604168,37.90473937988281,32.57878621419271
311,311.0,0.1049041748046875,0.0006357828776041666,0.12143452962239583,0.14623006184895834,32.68305460611979,45.481363932291664,30.55572509765625,28.612772623697918,27.932484944661457,0.11126200358072917,0.20154317220052084,0.2530415852864583,0.07883707682291667,34.105936686197914,36.542256673177086,21.457672119140625
312,312.0,0.0324249267578125,0.049591064453125,0.048319498697916664,0.11761983235677083,39.6270751953125,35.68077087402344,27.516682942708332,34.62791442871094,39.554595947265625,0.1163482666015625,0.033060709635416664,0.15513102213541666,0.1277923583984375,37.45333353678385,22.150675455729168,25.164286295572918
313,313.0,0.0019073486328125,0.19200642903645834,0.10172526041666667,0.16148885091145834,33.40848286946615,28.887430826822918,34.86442565917969,45.93849182128906,35.125732421875,0.1811981201171875,0.0362396240234375,0.08519490559895833,0.0247955322265625,21.322886149088543,24.659474690755207,35.182952880859375
314,314.0,0.09981791178385417,0.06612141927083333,0.0629425048828125,0.030517578125,25.452931722005207,32.7917734781901,44.606526692708336,31.813939412434895,17.16168721516927,0.19900004069010416,0.1125335693359375,0.23778279622395834,0.0896453857421875,21.681467692057293,32.38677978515625,40.10709126790365
315,315.0,0.07375081380208333,0.1468658447265625,0.118255615234375,0.006357828776041667,29.539108276367188,42.948404947916664,38.42608133951823,23.37328592936198,21.537144978841145,0.20599365234375,0.040690104166666664,0.15385945638020834,0.06103515625,29.154459635416668,40.60236612955729,23.464202880859375
316,316.0,0.09028116861979167,0.1926422119140625,0.033696492513020836,0.095367431640625,35.204569498697914,42.6483154296875,28.00750732421875,30.7464599609375,32.76507059733073,0.0934600830078125,0.050862630208333336,0.14559427897135416,0.07311503092447917,38.3599599202474,27.582168579101562,23.188273111979168
317,317.0,0.0025431315104166665,0.0152587890625,0.12270609537760417,0.15703837076822916,38.57103983561198,28.345743815104168,31.527201334635418,43.25103759765625,42.399088541666664,0.041325887044270836,0.010172526041666666,0.004450480143229167,0.11380513509114583,28.987884521484375,22.371927897135418,30.57098388671875
318,318.0,0.09218851725260417,0.030517578125,0.0133514404296875,0.0476837158203125,27.862548828125,29.883702596028645,40.334065755208336,40.49555460611979,23.325602213541668,0.19327799479166666,0.278472900390625,0.0362396240234375,0.0705718994140625,19.634246826171875,28.08698018391927,41.1993662516276
319,319.0,0.0152587890625,0.0896453857421875,0.021616617838541668,0.1735687255859375,26.387532552083332,38.23089599609375,44.49653625488281,22.481282552083332,18.597920735677082,0.017801920572916668,0.0006357828776041666,0.07184346516927083,0.087738037109375,24.755477905273438,39.110819498697914,31.487147013346355
320,320.0,0.0629425048828125,0.16911824544270834,0.13224283854166666,0.0705718994140625,32.38232930501302,45.98172505696615,31.285603841145832,26.010513305664062,26.570638020833332,0.0057220458984375,0.07692972819010417,0.08455912272135417,0.1430511474609375,34.641265869140625,35.70111592610677,21.9573974609375
321,321.0,0.23523966471354166,0.08392333984375,0.11444091796875,0.057220458984375,39.57494099934896,34.35198465983073,28.656005859375,36.956787109375,40.81026713053385,0.24731953938802084,0.12842814127604166,0.14177958170572916,0.027338663736979168,37.09983825683594,21.898905436197918,25.941212972005207
322,322.0,0.13860066731770834,0.008265177408854166,0.1125335693359375,0.06612141927083333,32.956441243489586,29.100418090820312,34.94834899902344,46.14893595377604,34.47659810384115,0.18183390299479166,0.14368693033854166,0.133514404296875,0.16721089680989584,20.398457845052082,25.074005126953125,36.220550537109375
323,323.0,0.14495849609375,0.3674825032552083,0.003814697265625,0.06739298502604167,25.754928588867188,33.02319844563802,44.9364980061849,31.358718872070312,17.39056905110677,0.1544952392578125,0.059763590494791664,0.370025634765625,0.0934600830078125,22.161483764648438,32.91447957356771,39.836883544921875
324,324.0,0.021616617838541668,0.2867380777994792,0.058492024739583336,0.1735687255859375,28.443654378255207,43.19063822428385,37.7648671468099,24.865468343098957,22.78582255045573,0.061670939127604164,0.056584676106770836,0.07184346516927083,0.049591064453125,28.78252665201823,41.07030232747396,22.844314575195312
325,325.0,0.10426839192708333,0.13987223307291666,0.0762939453125,0.0006357828776041666,35.823822021484375,41.867574055989586,27.605692545572918,31.422932942708332,33.65389506022135,0.1392364501953125,0.19582112630208334,0.0514984130859375,0.054041544596354164,38.8647715250651,27.198155721028645,22.957483927408855
326,326.0,0.1506805419921875,0.2892812093098958,0.16148885091145834,0.0858306884765625,38.55133056640625,28.455098470052082,31.501134236653645,44.29499308268229,41.903177897135414,0.0400543212890625,0.15004475911458334,0.2657572428385417,0.11380513509114583,28.378804524739582,22.585550944010418,30.822118123372395
327,327.0,0.020345052083333332,0.019073486328125,0.1373291015625,0.06739298502604167,27.768452962239582,30.118306477864582,40.46758015950521,41.163126627604164,23.287455240885418,0.0400543212890625,0.017801920572916668,0.057220458984375,0.0743865966796875,20.242055257161457,28.537750244140625,41.259765625
328,328.0,0.011444091796875,0.12652079264322916,0.23333231608072916,0.22379557291666666,27.243932088216145,37.952423095703125,44.10425821940104,22.97210693359375,18.88275146484375,0.044504801432291664,0.16466776529947916,0.050226847330729164,0.026702880859375,25.794347127278645,38.907368977864586,30.675888061523438
329,329.0,0.1087188720703125,0.125885009765625,0.152587890625,0.042597452799479164,31.997044881184895,45.50806681315104,29.5257568359375,27.55419413248698,28.113683064778645,0.1373291015625,0.14050801595052084,0.1087188720703125,0.10363260904947917,34.1498057047526,35.9045664469401,21.436691284179688
330,330.0,0.0152587890625,0.4564921061197917,0.0896453857421875,0.14623006184895834,40.431976318359375,34.238179524739586,28.553009033203125,36.24407450358073,40.2679443359375,0.0972747802734375,0.050226847330729164,0.118255615234375,0.22443135579427084,37.2473398844401,21.186192830403645,26.517232259114582
331,331.0,0.026067097981770832,0.0457763671875,0.12969970703125,0.072479248046875,32.505035400390625,28.434117635091145,36.07495625813802,45.55066426595052,33.82301330566406,0.23333231608072916,0.041961669921875,0.062306722005208336,0.057220458984375,20.965576171875,24.675369262695312,36.97077433268229
332,332.0,0.034332275390625,0.030517578125,0.09028116861979167,0.09409586588541667,26.208241780598957,32.65253702799479,46.01287841796875,31.041463216145832,17.908732096354168,0.0209808349609375,0.008900960286458334,0.003814697265625,0.0553131103515625,22.583643595377605,33.3251953125,39.57049051920573
333,333.0,0.0247955322265625,0.013987223307291666,0.1926422119140625,0.24350484212239584,29.256184895833332,43.1664784749349,36.33308410644531,25.79053243001302,23.110071818033855,0.026067097981770832,0.11507670084635417,0.10236104329427083,0.0362396240234375,29.732386271158855,40.31944274902344,21.707534790039062
334,334.0,0.003814697265625,0.012715657552083334,0.0591278076171875,0.10744730631510417,36.5447998046875,41.2139892578125,27.805328369140625,32.14200337727865,34.19303894042969,0.0171661376953125,0.3331502278645833,0.4151662190755208,0.20726521809895834,39.38102722167969,26.37926737467448,23.384730021158855
335,335.0,0.06612141927083333,0.4062652587890625,0.11189778645833333,0.11444091796875,38.94678751627604,28.30950419108073,32.27678934733073,44.4787343343099,42.14032491048177,0.217437744140625,0.06103515625,0.08392333984375,0.022252400716145832,27.803421020507812,22.33123779296875,31.475067138671875
336,336.0,0.07756551106770833,0.1964569091796875,0.118255615234375,0.059763590494791664,27.657826741536457,30.103683471679688,41.71562194824219,40.52098592122396,22.64086405436198,0.09473164876302083,0.18246968587239584,0.048319498697916664,0.034332275390625,20.823160807291668,28.956095377604168,41.83387756347656
337,337.0,0.07184346516927083,0.030517578125,0.22633870442708334,0.08074442545572917,27.776082356770832,38.23153177897135,43.8086191813151,24.56347147623698,19.973119099934895,0.11571248372395833,0.13987223307291666,0.148773193359375,0.072479248046875,26.056289672851562,38.91944885253906,29.7088623046875
338,338.0,0.23714701334635416,0.0762939453125,0.14559427897135416,0.13987223307291666,32.52283732096354,45.70770263671875,29.196421305338543,27.594884236653645,28.150558471679688,0.20154317220052084,0.045140584309895836,0.087738037109375,0.263214111328125,35.61528523763021,34.72455342610677,21.770477294921875
339,339.0,0.06739298502604167,0.08519490559895833,0.029246012369791668,0.095367431640625,40.13252258300781,33.27051798502604,29.354095458984375,37.80174255371094,41.27184549967448,0.3382364908854167,0.013987223307291666,0.13097127278645834,0.033060709635416664,35.93889872233073,21.7742919921875,26.372273763020832
340,340.0,0.06103515625,0.10363260904947917,0.038782755533854164,0.003814697265625,31.04845682779948,28.171539306640625,35.91473897298177,46.1877187093099,32.6836903889974,0.033060709635416664,0.2384185791015625,0.2117156982421875,0.0400543212890625,19.835789998372395,24.96019999186198,37.28675842285156
341,341.0,0.0152587890625,0.1010894775390625,0.1087188720703125,0.037511189778645836,26.380538940429688,33.04354349772135,46.170552571614586,30.587514241536457,18.145243326822918,0.15513102213541666,0.1506805419921875,0.18246968587239584,0.17865498860677084,22.78455098470052,33.747355143229164,38.8024648030599
342,342.0,0.06612141927083333,0.2619425455729167,0.0762939453125,0.040690104166666664,29.593785603841145,43.94658406575521,35.92554728190104,25.720596313476562,23.815155029296875,0.07375081380208333,0.014623006184895834,0.0972747802734375,0.035603841145833336,30.019124348958332,40.45232137044271,21.953582763671875
343,343.0,0.1430511474609375,0.026702880859375,0.07565816243489583,0.10744730631510417,36.73553466796875,40.38238525390625,28.3050537109375,30.65045674641927,34.313201904296875,0.09791056315104167,0.17865498860677084,0.09981791178385417,0.2651214599609375,38.543701171875,25.618871053059895,23.874282836914062
344,344.0,0.08265177408854167,0.06612141927083333,0.041325887044270836,0.0743865966796875,38.42989603678385,28.69415283203125,32.23355611165365,44.50289408365885,41.40472412109375,0.4431406656901042,0.152587890625,0.06866455078125,0.056584676106770836,27.374903361002605,23.061752319335938,31.58887227376302
345,345.0,0.095367431640625,0.03814697265625,0.0152587890625,0.4100799560546875,26.357014973958332,30.76489766438802,41.84277852376302,39.60355122884115,21.866480509440105,0.07311503092447917,0.06421407063802083,0.14623006184895834,0.09091695149739583,20.646413167317707,29.4036865234375,41.83832804361979
346,346.0,0.3910064697265625,0.2835591634114583,0.1544952392578125,0.10808308919270833,26.949564615885418,38.46041361490885,43.84422302246094,24.777730305989582,19.608179728190105,0.06930033365885417,0.110626220703125,0.0782012939453125,0.11889139811197917,25.686264038085938,39.60291544596354,29.65227762858073
347,347.0,0.15322367350260416,0.0820159912109375,0.06421407063802083,0.027974446614583332,33.87896219889323,45.06810506184896,29.275894165039062,27.845382690429688,28.610865275065105,0.21680196126302084,0.3376007080078125,0.15004475911458334,0.0705718994140625,36.267598470052086,33.88277689615885,22.057851155598957
348,348.0,0.10999043782552083,0.0858306884765625,0.048319498697916664,0.11444091796875,40.645599365234375,32.08351135253906,28.937021891276043,40.012359619140625,42.93505350748698,0.041325887044270836,0.18374125162760416,0.015894571940104168,0.15004475911458334,35.6591542561849,21.301905314127605,27.00042724609375
349,349.0,0.014623006184895834,0.17547607421875,0.0031789143880208335,0.029881795247395832,31.80249532063802,28.775533040364582,34.993489583333336,45.726776123046875,32.07079569498698,0.049591064453125,0.06612141927083333,0.091552734375,0.13796488444010416,20.54595947265625,25.61505635579427,37.22445170084635
350,350.0,0.17547607421875,0.017801920572916668,0.2689361572265625,0.12079874674479167,26.438395182291668,33.91393025716146,45.7770029703776,29.394785563151043,18.10900370279948,0.0400543212890625,0.09918212890625,0.011444091796875,0.06612141927083333,22.989908854166668,34.8517100016276,37.36050923665365
351,351.0,0.004450480143229167,0.20345052083333334,0.0286102294921875,0.14623006184895834,29.547373453776043,44.64848836263021,34.543355305989586,24.204254150390625,23.001352945963543,0.1373291015625,0.10045369466145833,0.13033548990885416,0.06612141927083333,30.66571553548177,40.295918782552086,21.486282348632812
352,352.0,0.2002716064453125,0.050226847330729164,0.16911824544270834,0.4297892252604167,37.56904602050781,40.10963439941406,28.076171875,32.19477335611979,35.5536142985026,0.23015340169270834,0.16148885091145834,0.016530354817708332,0.22252400716145834,38.59519958496094,25.09307861328125,23.455301920572918
353,353.0,0.0247955322265625,0.08646647135416667,0.00762939453125,0.020345052083333332,37.94034322102865,28.657913208007812,32.72120157877604,45.26583353678385,41.19682312011719,0.10617574055989583,0.3306070963541667,0.0057220458984375,0.15004475911458334,26.378631591796875,23.049036661783855,32.65953063964844
354,354.0,0.010172526041666666,0.07883707682291667,0.055948893229166664,0.045140584309895836,24.921417236328125,30.472437540690105,42.38065083821615,38.469950358072914,20.32470703125,0.09473164876302083,0.038782755533854164,0.102996826171875,0.045140584309895836,20.011266072591145,29.569625854492188,41.84722900390625
355,355.0,0.058492024739583336,0.0476837158203125,0.18056233723958334,0.17611185709635416,27.086257934570312,38.487752278645836,43.33941141764323,24.566014607747395,19.701639811197918,0.148773193359375,0.005086263020833333,0.060399373372395836,0.10935465494791667,26.294708251953125,39.99519348144531,28.523763020833332
356,356.0,0.07565816243489583,0.213623046875,0.010808308919270834,0.0057220458984375,34.63617960611979,44.75593566894531,28.985341389973957,27.856826782226562,29.062271118164062,0.0095367431640625,0.11761983235677083,0.13860066731770834,0.10553995768229167,36.899566650390625,33.170064290364586,22.612253824869793
357,357.0,0.15004475911458334,0.26702880859375,0.021616617838541668,0.062306722005208336,40.43388366699219,32.52347310384115,30.204137166341145,39.40137227376302,42.371114095052086,0.026067097981770832,0.050862630208333336,0.16911824544270834,0.08837381998697917,34.52491760253906,21.505355834960938,28.04247538248698
358,358.0,0.095367431640625,0.0095367431640625,0.3732045491536458,0.055948893229166664,30.809402465820312,28.479258219401043,37.42408752441406,45.88635762532552,31.004587809244793,0.042597452799479164,0.22188822428385416,0.2002716064453125,0.09791056315104167,19.840240478515625,26.175181070963543,38.73570760091146
359,359.0,0.11380513509114583,0.091552734375,0.027338663736979168,0.118255615234375,26.621500651041668,34.26361083984375,45.91814676920573,28.87280782063802,18.416722615559895,0.18437703450520834,0.24350484212239584,0.027974446614583332,0.033696492513020836,23.05285135904948,35.05134582519531,37.35542297363281
360,360.0,0.10045369466145833,0.0012715657552083333,0.11698404947916667,0.0209808349609375,30.477523803710938,44.46538289388021,35.273234049479164,25.906880696614582,24.400711059570312,0.21616617838541666,0.07311503092447917,0.0438690185546875,0.09981791178385417,31.539281209309895,40.242513020833336,21.86266581217448
361,361.0,0.033696492513020836,0.02288818359375,0.031789143880208336,0.16148885091145834,38.10310363769531,38.8800303141276,28.196334838867188,33.39958190917969,36.28094991048177,0.0133514404296875,0.0476837158203125,0.018437703450520832,0.0782012939453125,39.05550638834635,23.85393778483073,23.972193400065105
362,362.0,0.0858306884765625,0.07120768229166667,0.0362396240234375,0.064849853515625,36.9720458984375,29.008229573567707,33.2940419514974,45.65238952636719,40.50890604654948,0.21616617838541666,0.4412333170572917,0.013987223307291666,0.031153361002604168,25.31115214029948,23.370107014973957,33.14844767252604
363,363.0,0.0006357828776041666,0.1544952392578125,0.029246012369791668,0.026067097981770832,26.213963826497395,30.6854248046875,42.54468282063802,37.69747416178385,20.348866780598957,0.019709269205729168,0.017801920572916668,0.1220703125,0.050862630208333336,21.386464436848957,29.846827189127605,41.31189982096354
364,364.0,0.0934600830078125,0.040690104166666664,0.14368693033854166,0.016530354817708332,28.664906819661457,40.6182607014974,42.439778645833336,24.959564208984375,21.172841389973957,0.118255615234375,0.23905436197916666,0.026702880859375,0.0629425048828125,27.374267578125,41.29918416341146,27.777989705403645
365,365.0,0.125885009765625,0.00762939453125,0.22570292154947916,0.1125335693359375,33.96161397298177,45.26646931966146,28.142929077148438,28.328577677408855,29.436111450195312,0.102996826171875,0.006357828776041667,0.016530354817708332,0.156402587890625,36.72472635904948,32.95135498046875,21.973292032877605
366,366.0,0.13987223307291666,0.2829233805338542,0.13287862141927084,0.038782755533854164,39.91889953613281,31.37969970703125,30.167261759440105,40.3594970703125,43.34894816080729,0.18946329752604166,0.07120768229166667,0.050862630208333336,0.16021728515625,34.14344787597656,21.062215169270832,28.024673461914062
367,367.0,0.06802876790364583,0.06739298502604167,0.0006357828776041666,0.031789143880208336,30.884424845377605,28.261820475260418,37.175496419270836,44.67964172363281,29.33820088704427,0.12906392415364584,0.004450480143229167,0.10935465494791667,0.16148885091145834,20.085652669270832,26.36273701985677,38.73125712076823
368,368.0,0.20281473795572916,0.3782908121744792,0.14623006184895834,0.023523966471354168,26.987711588541668,34.20702616373698,45.79035441080729,28.277079264322918,18.358866373697918,0.2040863037109375,0.2562204996744792,0.12906392415364584,0.10617574055989583,23.687998453776043,35.49067179361979,36.374409993489586
369,369.0,0.19582112630208334,0.152587890625,0.056584676106770836,0.0209808349609375,31.892776489257812,45.14884948730469,34.222920735677086,24.56347147623698,24.414698282877605,0.06612141927083333,0.2956390380859375,0.0743865966796875,0.034332275390625,32.77587890625,39.754231770833336,21.315256754557293
370,370.0,0.14940897623697916,0.07375081380208333,0.1163482666015625,0.006993611653645833,38.730621337890625,39.11654154459635,28.031667073567707,33.093770345052086,36.427815755208336,0.0247955322265625,0.15958150227864584,0.20535786946614584,0.19200642903645834,38.660685221354164,23.626963297526043,24.205525716145832
371,371.0,0.0782012939453125,0.07120768229166667,0.08328755696614583,0.09282430013020833,37.2931162516276,28.63629659016927,33.48350524902344,45.893351236979164,40.04351298014323,0.12524922688802084,0.08646647135416667,0.23905436197916666,0.029246012369791668,25.407155354817707,23.245493570963543,33.696492513020836
372,372.0,0.1926422119140625,0.0006357828776041666,0.12652079264322916,0.0762939453125,26.678721110026043,31.248092651367188,43.19445292154948,37.111918131510414,19.308090209960938,0.13605753580729166,0.05340576171875,0.019073486328125,0.062306722005208336,21.13787333170573,30.32684326171875,41.033426920572914
373,373.0,0.014623006184895834,0.21998087565104166,0.16721089680989584,0.043233235677083336,27.753829956054688,40.30481974283854,42.490641276041664,25.12677510579427,21.227518717447918,0.005086263020833333,0.164031982421875,0.0286102294921875,0.064849853515625,27.284622192382812,40.936787923177086,27.565638224283855
374,374.0,0.2752939860026042,0.13415018717447916,0.0025431315104166665,0.08710225423177083,33.97432963053385,44.68854268391927,28.28534444173177,28.177897135416668,29.615402221679688,0.24922688802083334,0.026067097981770832,0.14495849609375,0.240325927734375,36.76033020019531,31.664530436197918,22.645950317382812
375,375.0,0.011444091796875,0.07756551106770833,0.08265177408854167,0.1983642578125,39.6575927734375,30.375162760416668,30.111312866210938,39.791107177734375,43.26629638671875,0.09473164876302083,0.008265177408854166,0.19200642903645834,0.0025431315104166665,32.58387247721354,21.769205729166668,28.809865315755207
376,376.0,0.29754638671875,0.057856241861979164,0.038782755533854164,0.0025431315104166665,31.22711181640625,28.891245524088543,38.02490234375,44.53595479329427,28.439839680989582,0.1125335693359375,0.059763590494791664,0.008265177408854166,0.16530354817708334,20.20708719889323,26.435216267903645,39.26404317220052
377,377.0,0.1010894775390625,0.2562204996744792,0.09218851725260417,0.008265177408854166,27.081807454427082,35.146077473958336,45.5176035563151,26.845932006835938,18.508275349934895,0.06739298502604167,0.08328755696614583,0.034332275390625,0.16021728515625,23.857752482096355,35.83590189615885,35.96623738606771
378,378.0,0.1125335693359375,0.0667572021484375,0.09282430013020833,0.014623006184895834,31.073252360026043,45.58690388997396,33.98704528808594,26.142120361328125,25.38299560546875,0.036875406901041664,0.047047932942708336,0.08265177408854167,0.11316935221354167,32.06507364908854,39.889017740885414,21.445592244466145
379,379.0,0.0400543212890625,0.052134195963541664,0.055948893229166664,0.2924601236979167,39.217631022135414,38.16858927408854,28.26372782389323,33.963521321614586,37.77631123860677,0.19327799479166666,0.4520416259765625,0.14432271321614584,0.087738037109375,39.03516133626302,23.334503173828125,24.246851603190105
380,380.0,0.0006357828776041666,0.026067097981770832,0.0972747802734375,0.12334187825520833,36.532084147135414,27.890523274739582,33.36652119954427,46.360015869140625,39.7485097249349,0.07120768229166667,0.08074442545572917,0.011444091796875,0.0025431315104166665,24.682998657226562,22.913614908854168,33.71747334798177
381,381.0,0.15894571940104166,0.09473164876302083,0.0476837158203125,0.20917256673177084,26.278177897135418,31.319936116536457,43.3190663655599,36.435445149739586,18.969217936197918,0.17420450846354166,0.3217061360677083,0.10935465494791667,0.07120768229166667,20.847320556640625,30.516942342122395,40.898640950520836
