Time,S1_D1_Red,S2_D2_Red,S3_D3_Red,S4_D4_Red,S5_D5_Red,S6_D6_Red,S7_D7_Red,S8_D8_Red,S1_D1_Ir,S2_D2_Ir,S3_D3_Ir,S4_D4_Ir,S5_D5_Ir,S6_D6_Ir,S7_D7_Ir,S8_D8_Ir
0.0,0.17611185709635416,0.11316935221354167,0.09473164876302083,0.1678466796875,332.6867421468099,391.1590576171875,455.6128184000651,241.0558064778646,0.012079874674479166,0.4107157389322917,0.0514984130859375,0.179290771484375,218.56371561686197,254.00606791178384,300.5027770996094,164.43824768066406
1.0,0.054677327473958336,0.19772847493489584,0.10808308919270833,0.080108642578125,124.3273417154948,143.72698465983072,185.3491465250651,115.34436543782552,0.0896453857421875,0.0896453857421875,0.08900960286458333,0.042597452799479164,82.36757914225261,93.55672200520833,127.09744771321614,77.35315958658855
2.0,0.0171661376953125,0.20662943522135416,0.1468658447265625,0.0171661376953125,52.28996276855469,66.31151835123698,91.74919128417969,58.30510457356771,0.055948893229166664,0.044504801432291664,0.12143452962239583,0.012715657552083334,34.75252787272135,49.5764414469401,63.50008646647135,38.515726725260414
3.0,0.1068115234375,0.07692972819010417,0.06103515625,0.1010894775390625,33.43900044759115,50.465901692708336,53.04527282714844,27.36663818359375,0.0934600830078125,0.22188822428385416,0.16148885091145834,0.048955281575520836,28.214136759440105,39.52344258626302,37.21300760904948,19.52362060546875
4.0,0.06357828776041667,0.3827412923177083,0.029246012369791668,0.034332275390625,36.09530131022135,42.44677225748698,33.97178649902344,29.35028076171875,0.1621246337890625,0.2587636311848958,0.00762939453125,0.034332275390625,30.968983968098957,31.096140543619793,23.12787373860677,27.802785237630207
5.0,0.06357828776041667,0.06993611653645833,0.0591278076171875,0.2981821695963542,36.00756327311198,32.25135803222656,29.055277506510418,41.88410441080729,0.12969970703125,0.033696492513020836,0.11952718098958333,0.12906392415364584,26.967366536458332,22.48700459798177,25.666554768880207,35.106658935546875
6.0,0.1087188720703125,0.09600321451822917,0.034332275390625,0.09600321451822917,29.963175455729168,26.908238728841145,40.46758015950521,40.79437255859375,0.0400543212890625,0.255584716796875,0.4119873046875,0.057856241861979164,22.470474243164062,21.718978881835938,33.893585205078125,29.470443725585938
7.0,0.0514984130859375,0.17229715983072916,0.18755594889322916,0.2644856770833333,23.836771647135418,36.6522471110026,41.071573893229164,28.717041015625,0.044504801432291664,0.031789143880208336,0.008900960286458334,0.043233235677083336,19.563674926757812,32.52855936686198,30.005772908528645,18.1121826171875
8.0,0.095367431640625,0.046412150065104164,0.1010894775390625,0.072479248046875,30.145645141601562,40.646870930989586,32.857259114583336,21.772384643554688,0.0591278076171875,0.19200642903645834,0.1926422119140625,0.046412150065104164,28.184254964192707,30.65935770670573,23.687998453776043,18.712361653645832
9.0,0.00762939453125,0.21235148111979166,0.034968058268229164,0.10236104329427083,35.79139709472656,34.88922119140625,24.957656860351562,36.24725341796875,0.11507670084635417,0.1468658447265625,0.0095367431640625,0.171661376953125,28.28216552734375,24.723052978515625,20.341873168945312,34.26361083984375
10.0,0.12461344401041667,0.3541310628255208,0.018437703450520832,0.06548563639322917,31.850179036458332,25.564829508463543,33.85035196940104,42.516072591145836,0.004450480143229167,0.2950032552083333,0.21235148111979166,0.0972747802734375,24.506251017252605,19.540150960286457,30.66698710123698,31.834920247395832
11.0,0.062306722005208336,0.029246012369791668,0.1506805419921875,0.014623006184895834,25.891621907552082,30.869166056315105,42.36412048339844,32.31112162272135,0.0012715657552083333,0.18628438313802084,0.21298726399739584,0.0896453857421875,18.621444702148438,27.622222900390625,32.43891398111979,21.988550821940105
12.0,0.20472208658854166,0.12270609537760417,0.07184346516927083,0.11126200358072917,25.667826334635418,39.51581319173177,36.61028544108073,19.540150960286457,0.004450480143229167,0.15576680501302084,0.11571248372395833,0.2829233805338542,23.309707641601562,32.37724304199219,27.167638142903645,15.183130900065104
13.0,0.18628438313802084,0.14177958170572916,0.1125335693359375,0.021616617838541668,34.009297688802086,38.33452860514323,28.170267740885418,27.514139811197918,0.015894571940104168,0.041325887044270836,0.0667572021484375,0.057856241861979164,29.547373453776043,28.647104899088543,19.45050557454427,27.0233154296875
14.0,0.07311503092447917,0.010808308919270834,0.0031789143880208335,0.0514984130859375,34.489949544270836,30.588150024414062,27.776718139648438,40.508270263671875,0.061670939127604164,0.1392364501953125,0.15767415364583334,0.06739298502604167,26.032765706380207,21.256128946940105,24.819056193033855,34.557342529296875
15.0,0.17992655436197916,0.039418538411458336,0.2702077229817708,0.09663899739583333,29.193878173828125,26.254018147786457,39.26277160644531,38.54497273763021,0.3058115641276042,0.2848307291666667,0.0457763671875,0.15958150227864584,21.712621053059895,21.471023559570312,33.03337097167969,28.08062235514323
16.0,0.06739298502604167,0.3744761149088542,0.006357828776041667,0.1392364501953125,22.928873697916668,36.46405537923177,40.32325744628906,27.626673380533855,0.08710225423177083,0.054041544596354164,0.0095367431640625,0.022252400716145832,19.48229471842448,32.11402893066406,29.048919677734375,16.980489095052082
17.0,0.008265177408854166,0.049591064453125,0.12524922688802084,0.186920166015625,30.64282735188802,40.83379109700521,32.6684315999349,20.020167032877605,0.033060709635416664,0.12842814127604166,0.08900960286458333,0.22061665852864584,28.188705444335938,30.302683512369793,23.44957987467448,18.164952596028645
18.0,0.171661376953125,0.0782012939453125,0.0820159912109375,0.0972747802734375,35.08822123209635,34.35834248860677,24.78345235188802,37.28675842285156,0.09918212890625,0.141143798828125,0.1506805419921875,0.14177958170572916,27.399063110351562,24.627685546875,20.360310872395832,34.18604532877604
19.0,0.21298726399739584,0.21107991536458334,0.052134195963541664,0.110626220703125,31.603495279947918,24.81396993001302,32.6391855875651,41.943868001302086,0.19009908040364584,0.0896453857421875,0.3916422526041667,0.0934600830078125,24.290720621744793,19.64124043782552,30.495325724283855,31.711578369140625
20.0,0.20281473795572916,0.2498626708984375,0.10935465494791667,0.008900960286458334,24.131139119466145,31.148910522460938,42.28337605794271,33.589680989583336,0.040690104166666664,0.1125335693359375,0.005086263020833333,0.011444091796875,18.276214599609375,27.849833170572918,31.7840576171875,22.579193115234375
21.0,0.13224283854166666,0.034968058268229164,0.06739298502604167,0.10172526041666667,25.449752807617188,39.08411661783854,36.24916076660156,19.906997680664062,0.03814697265625,0.13415018717447916,0.012079874674479166,0.06993611653645833,23.367563883463543,32.60676066080729,26.611963907877605,15.864054361979166
22.0,0.15703837076822916,0.15131632486979166,0.02288818359375,0.1506805419921875,34.458160400390625,38.126627604166664,26.739756266276043,28.718948364257812,0.17992655436197916,0.05340576171875,0.047047932942708336,0.16530354817708334,30.052820841471355,28.223673502604168,18.669764200846355,28.031667073567707
23.0,0.072479248046875,0.08837381998697917,0.18946329752604166,0.11126200358072917,33.92219543457031,30.91112772623698,27.72076924641927,40.264129638671875,0.1697540283203125,0.2568562825520833,0.3465016682942708,0.10808308919270833,25.1617431640625,21.284739176432293,25.27936299641927,34.50902303059896
24.0,0.046412150065104164,0.019709269205729168,0.2721150716145833,0.20535786946614584,27.02776590983073,26.409149169921875,39.48211669921875,39.766947428385414,0.041325887044270836,0.17674763997395834,0.20281473795572916,0.19391377766927084,20.32470703125,21.944046020507812,33.123016357421875,28.381983439127605
25.0,0.10236104329427083,0.240325927734375,0.16085306803385416,0.0457763671875,23.05920918782552,37.31727600097656,39.37848409016927,27.39715576171875,0.06802876790364583,0.23969014485677084,0.0438690185546875,0.033696492513020836,19.430796305338543,32.23355611165365,28.338114420572918,16.245524088541668
26.0,0.030517578125,0.052769978841145836,0.1087188720703125,0.029246012369791668,31.160990397135418,40.63860575358073,31.662623087565105,20.84795633951823,0.041325887044270836,0.23651123046875,0.10617574055989583,0.010808308919270834,28.99487813313802,30.547459920247395,22.521336873372395,19.560496012369793
27.0,0.1068115234375,0.20599365234375,0.3248850504557292,0.3172556559244792,36.85124715169271,33.98768107096354,24.549484252929688,37.84306844075521,0.06103515625,0.0972747802734375,0.10808308919270833,0.07502237955729167,28.115590413411457,24.646759033203125,20.221710205078125,33.75689188639323
28.0,0.040690104166666664,0.031153361002604168,0.24286905924479166,0.0820159912109375,31.116485595703125,25.897979736328125,34.8046620686849,42.16194152832031,0.2562204996744792,0.18183390299479166,0.1983642578125,0.18374125162760416,23.836135864257812,20.21344502766927,31.274159749348957,30.893961588541668
29.0,0.031789143880208336,0.057220458984375,0.064849853515625,0.13796488444010416,24.40198262532552,31.694412231445312,41.681925455729164,32.63409932454427,0.013987223307291666,0.15513102213541666,0.0705718994140625,0.06930033365885417,18.121719360351562,28.137842814127605,30.89459737141927,21.881103515625
30.0,0.12524922688802084,0.0286102294921875,0.17611185709635416,0.08710225423177083,26.067733764648438,39.211273193359375,35.67059834798177,19.273122151692707,0.125885009765625,0.17992655436197916,0.00762939453125,0.2663930257161458,23.809432983398438,32.25008646647135,26.307423909505207,15.355428059895834
31.0,0.13860066731770834,0.17293294270833334,0.08138020833333333,0.10426839192708333,34.04808044433594,37.600199381510414,27.292887369791668,28.024037679036457,0.0324249267578125,0.0133514404296875,0.087738037109375,0.0324249267578125,29.181162516276043,27.688980102539062,18.990834554036457,27.78943379720052
32.0,0.10363260904947917,0.5016326904296875,0.13033548990885416,0.057220458984375,33.87006123860677,29.336929321289062,28.792063395182293,41.80018107096354,0.05340576171875,0.017801920572916668,0.06103515625,0.019073486328125,25.45611063639323,20.166397094726562,25.460561116536457,34.29094950358073
33.0,0.2714792887369792,0.22824605305989584,0.03814697265625,0.1239776611328125,27.86699930826823,26.44793192545573,39.225260416666664,38.07258605957031,0.2848307291666667,0.14177958170572916,0.30517578125,0.057856241861979164,21.036783854166668,22.37701416015625,32.43064880371094,27.42449442545573
34.0,0.152587890625,0.316619873046875,0.13287862141927084,0.164031982421875,23.619333902994793,37.48130798339844,39.58702087402344,26.731491088867188,0.07883707682291667,0.050226847330729164,0.10045369466145833,0.0667572021484375,20.451863606770832,32.13183085123698,28.696060180664062,16.343434651692707
35.0,0.12079874674479167,0.3210703531901042,0.2867380777994792,0.005086263020833333,31.888961791992188,39.563496907552086,32.358805338541664,20.017623901367188,0.027974446614583332,0.07565816243489583,0.031153361002604168,0.2600351969401042,29.33947245279948,29.981613159179688,22.839864095052082,19.605000813802082
36.0,0.10553995768229167,0.2892812093098958,0.2759297688802083,0.20662943522135416,36.15442911783854,32.24754333496094,25.229136149088543,38.42862447102865,0.12270609537760417,0.2791086832682292,0.10045369466145833,0.07311503092447917,27.71441141764323,23.413340250651043,20.627975463867188,34.43018595377604
37.0,0.087738037109375,0.12143452962239583,0.1068115234375,0.0324249267578125,30.686696370442707,24.583816528320312,35.32981872558594,42.0525868733724,0.022252400716145832,0.2924601236979167,0.042597452799479164,0.008900960286458334,23.784637451171875,19.262949625651043,31.876246134440105,31.796773274739582
38.0,0.05340576171875,0.1239776611328125,0.08455912272135417,0.14623006184895834,23.81134033203125,32.20812479654948,42.0684814453125,32.948811848958336,0.036875406901041664,0.0553131103515625,0.041325887044270836,0.0209808349609375,18.110275268554688,28.635025024414062,31.691869099934895,21.445592244466145
39.0,0.09409586588541667,0.102996826171875,0.047047932942708336,0.21235148111979166,26.95465087890625,39.4446055094401,35.78631083170573,18.28320821126302,0.064849853515625,0.095367431640625,0.059763590494791664,0.110626220703125,24.724960327148438,32.35626220703125,26.276906331380207,15.141805013020834
40.0,0.1373291015625,0.010172526041666666,0.03814697265625,0.186920166015625,34.05189514160156,37.47685750325521,27.167002360026043,28.835296630859375,0.036875406901041664,0.0057220458984375,0.1964569091796875,0.027338663736979168,29.241561889648438,27.598063151041668,18.89355977376302,28.110504150390625
41.0,0.0896453857421875,0.06548563639322917,0.0362396240234375,0.012079874674479166,34.23754374186198,29.494603474934895,30.623753865559895,40.431976318359375,0.062306722005208336,0.057220458984375,0.17801920572916666,0.0095367431640625,25.704065958658855,20.371754964192707,26.978174845377605,33.69331359863281
42.0,0.10236104329427083,0.10617574055989583,0.033696492513020836,0.027338663736979168,26.871363321940105,25.90624491373698,39.576212565104164,37.89520263671875,0.2683003743489583,0.021616617838541668,0.029246012369791668,0.027974446614583332,19.711812337239582,22.127151489257812,32.92147318522135,27.208328247070312
43.0,0.06548563639322917,0.055948893229166664,0.2600351969401042,0.12906392415364584,23.274739583333332,38.00837198893229,39.2767588297526,26.544570922851562,0.08519490559895833,0.23333231608072916,0.3980000813802083,0.2676645914713542,19.561131795247395,31.996409098307293,28.20142110188802,16.324361165364582
44.0,0.13224283854166666,0.1239776611328125,0.039418538411458336,0.110626220703125,30.87298075358073,39.585113525390625,30.31603495279948,21.334330240885418,0.0972747802734375,0.0286102294921875,0.041325887044270836,0.15958150227864584,28.666178385416668,29.96508280436198,21.313985188802082,20.112355550130207
45.0,0.15767415364583334,0.041961669921875,0.0006357828776041666,0.033060709635416664,35.128275553385414,33.30167134602865,23.984273274739582,38.42798868815104,0.019073486328125,0.1583099365234375,0.16276041666666666,0.09854634602864583,26.96990966796875,24.11651611328125,20.66357930501302,33.71620178222656
46.0,0.033060709635416664,0.148773193359375,0.14750162760416666,0.16466776529947916,30.150731404622395,24.715423583984375,35.525004069010414,41.13133748372396,0.055948893229166664,0.30517578125,0.026702880859375,0.017801920572916668,22.67011006673177,19.920984903971355,31.998316446940105,30.337015787760418
47.0,0.1239776611328125,0.2663930257161458,0.06548563639322917,0.06548563639322917,23.345311482747395,32.46370951334635,41.28710428873698,31.59777323404948,0.041325887044270836,0.06548563639322917,0.012079874674479166,0.11952718098958333,17.948150634765625,28.930028279622395,30.8685302734375,21.265029907226562
48.0,0.10808308919270833,0.17992655436197916,0.0934600830078125,0.1964569091796875,27.097066243489582,38.83488972981771,34.46197509765625,20.33678690592448,0.17674763997395834,0.058492024739583336,0.0438690185546875,0.0152587890625,24.511973063151043,31.649271647135418,25.23485819498698,16.532262166341145
49.0,0.014623006184895834,0.148773193359375,0.06739298502604167,0.040690104166666664,33.91710917154948,37.105560302734375,25.52350362141927,31.8145751953125,0.064849853515625,0.16021728515625,0.12461344401041667,0.2288818359375,29.291152954101562,27.634938557942707,18.730799357096355,30.340194702148438
50.0,0.12842814127604166,0.209808349609375,0.008265177408854166,0.1735687255859375,41.690826416015625,28.985977172851562,29.549916585286457,41.23560587565104,0.1049041748046875,0.2619425455729167,0.1316070556640625,0.11444091796875,24.73894755045573,20.139694213867188,26.536941528320312,34.39203898111979
51.0,0.22252400716145834,0.0019073486328125,0.2956390380859375,0.0057220458984375,26.712417602539062,27.263641357421875,39.187113444010414,36.420186360677086,0.06802876790364583,0.2581278483072917,0.048319498697916664,0.042597452799479164,19.469579060872395,23.41016133626302,32.71802266438802,26.11986796061198
52.0,0.0247955322265625,0.08392333984375,0.15322367350260416,0.034332275390625,24.053573608398438,38.39429219563802,38.86095682779948,25.472005208333332,0.3140767415364583,0.011444091796875,0.0247955322265625,0.057856241861979164,20.266215006510418,32.20367431640625,28.40741475423177,15.573501586914062
53.0,0.042597452799479164,0.048319498697916664,0.041325887044270836,0.026067097981770832,32.131195068359375,39.35559590657552,30.934651692708332,22.58745829264323,0.012715657552083334,0.14177958170572916,0.3115336100260417,0.027974446614583332,29.519399007161457,29.298782348632812,21.672566731770832,21.02343241373698
54.0,0.09981791178385417,0.3229777018229167,0.008900960286458334,0.004450480143229167,35.8740488688151,31.68169657389323,25.15856424967448,39.41790262858073,0.0972747802734375,0.09981791178385417,0.11952718098958333,0.1049041748046875,27.30242411295573,23.29572041829427,21.285374959309895,34.268697102864586
55.0,0.308990478515625,0.2778371175130208,0.4024505615234375,0.2549489339192708,29.77434794108073,24.832407633463543,36.257425944010414,40.43261210123698,0.034332275390625,0.06802876790364583,0.0705718994140625,0.0457763671875,22.977193196614582,20.06212870279948,32.73836771647135,29.847462972005207
56.0,0.354766845703125,0.19073486328125,0.12652079264322916,0.07502237955729167,24.889628092447918,32.604217529296875,41.5191650390625,31.042734781901043,0.041961669921875,0.050226847330729164,0.15513102213541666,0.07565816243489583,18.65069071451823,29.166539510091145,30.930201212565105,21.148045857747395
57.0,0.03814697265625,0.11761983235677083,0.021616617838541668,0.17484029134114584,28.870900472005207,39.334615071614586,34.25025939941406,19.571304321289062,0.16466776529947916,0.16530354817708334,0.061670939127604164,0.055948893229166664,26.567459106445312,31.587600708007812,25.371551513671875,16.25378926595052
58.0,0.07311503092447917,0.10426839192708333,0.011444091796875,0.2924601236979167,34.856160481770836,36.72218322753906,26.447296142578125,31.946182250976562,0.09409586588541667,0.24286905924479166,0.034332275390625,0.217437744140625,29.699325561523438,26.827494303385418,19.510269165039062,30.646006266276043
59.0,0.07692972819010417,0.0896453857421875,0.10172526041666667,0.11889139811197917,33.95271301269531,28.388341267903645,30.092875162760418,41.04487101236979,0.1049041748046875,0.027338663736979168,0.1087188720703125,0.1220703125,25.745391845703125,19.6380615234375,27.109146118164062,33.71302286783854
60.0,0.019709269205729168,0.09854634602864583,0.10045369466145833,0.286102294921875,27.124404907226562,27.645111083984375,39.66712951660156,38.00837198893229,0.1926422119140625,0.2969106038411458,0.015894571940104168,0.14050801595052084,19.92479960123698,23.12151590983073,32.627105712890625,26.598612467447918
61.0,0.4533131917317708,0.2460479736328125,0.21870930989583334,0.055948893229166664,24.178187052408855,37.85578409830729,38.51445515950521,25.300343831380207,0.17611185709635416,0.247955322265625,0.156402587890625,0.15767415364583334,21.078745524088543,31.632741292317707,27.942657470703125,15.644709269205729
62.0,0.186920166015625,0.18056233723958334,0.1277923583984375,0.1068115234375,33.21139017740885,39.1241709391276,30.778884887695312,23.343404134114582,0.064849853515625,0.3058115641276042,0.23778279622395834,0.1373291015625,29.839197794596355,29.021581013997395,21.09209696451823,21.295547485351562
63.0,0.08138020833333333,0.09663899739583333,0.0025431315104166665,0.23905436197916666,35.669962565104164,32.25008646647135,24.915695190429688,39.71544901529948,0.20472208658854166,0.087738037109375,0.4571278889973958,0.1316070556640625,27.660369873046875,23.63141377766927,21.030426025390625,33.98577372233073
64.0,0.0095367431640625,0.1277923583984375,0.21870930989583334,0.24541219075520834,29.904683430989582,25.287628173828125,35.817464192708336,41.1383310953776,0.027338663736979168,0.15894571940104166,0.08392333984375,0.1544952392578125,22.449493408203125,20.288467407226562,31.649271647135418,29.824574788411457
65.0,0.19900004069010416,0.2848307291666667,0.16721089680989584,0.039418538411458336,23.299535115559895,34.38695271809896,41.1980946858724,30.64409891764323,0.062306722005208336,0.2880096435546875,0.0133514404296875,0.0457763671875,18.16558837890625,30.52520751953125,30.7464599609375,20.415623982747395
66.0,0.17865498860677084,0.07184346516927083,0.07375081380208333,0.2619425455729167,28.43475341796875,40.06131490071615,34.91401672363281,19.377390543619793,0.029246012369791668,0.10553995768229167,0.09981791178385417,0.179290771484375,25.771458943684895,32.43192036946615,24.784088134765625,16.09039306640625
67.0,0.031153361002604168,0.24731953938802084,0.058492024739583336,0.006993611653645833,34.05062357584635,36.64588928222656,25.152206420898438,32.648722330729164,0.3560384114583333,0.031153361002604168,0.07311503092447917,0.11444091796875,28.497060139973957,27.108510335286457,18.843968709309895,30.928929646809895
68.0,0.15004475911458334,0.00762939453125,0.08328755696614583,0.012079874674479166,32.73963928222656,28.172810872395832,31.08660380045573,43.154398600260414,0.2288818359375,0.14495849609375,0.015894571940104168,0.0591278076171875,25.010426839192707,19.968032836914062,27.771631876627605,34.69975789388021
69.0,0.17611185709635416,0.3077189127604167,0.23333231608072916,0.0629425048828125,27.661641438802082,28.159459431966145,39.113362630208336,36.908467610677086,0.10617574055989583,0.06930033365885417,0.06421407063802083,0.025431315104166668,19.707361857096355,23.893356323242188,32.21702575683594,26.009241739908855
70.0,0.029246012369791668,0.023523966471354168,0.050862630208333336,0.19709269205729166,23.817698160807293,38.71790568033854,38.7414296468099,22.909800211588543,0.07311503092447917,0.0896453857421875,0.048955281575520836,0.0457763671875,20.872116088867188,31.803131103515625,28.534571329752605,14.640172322591146
71.0,0.11698404947916667,0.11698404947916667,0.0019073486328125,0.020345052083333332,33.00158182779948,38.86604309082031,30.481338500976562,24.277369181315105,0.0057220458984375,0.064849853515625,0.08074442545572917,0.017801920572916668,29.660542805989582,28.752644856770832,20.758946736653645,22.20916748046875
72.0,0.16848246256510416,0.004450480143229167,0.1430511474609375,0.11444091796875,35.81110636393229,32.68877665201823,25.990804036458332,40.3448740641276,0.148773193359375,0.2562204996744792,0.2651214599609375,0.09663899739583333,27.315139770507812,23.571014404296875,22.623062133789062,34.09894307454427
73.0,0.0705718994140625,0.1125335693359375,0.0286102294921875,0.0629425048828125,28.938929239908855,24.580001831054688,37.48448689778646,40.374755859375,0.0019073486328125,0.09600321451822917,0.003814697265625,0.09981791178385417,21.98028564453125,19.887288411458332,32.31048583984375,29.370625813802082
74.0,0.148773193359375,0.006993611653645833,0.017801920572916668,0.1277923583984375,23.954391479492188,33.686319986979164,40.545145670572914,30.506134033203125,0.18374125162760416,0.045140584309895836,0.048955281575520836,0.2568562825520833,18.001556396484375,29.976526896158855,30.710220336914062,20.367940266927082
75.0,0.13097127278645834,0.4838307698567708,0.209808349609375,0.0057220458984375,29.238382975260418,39.752960205078125,34.1339111328125,19.927342732747395,0.054041544596354164,0.046412150065104164,0.020345052083333332,0.026702880859375,26.19489034016927,32.47642517089844,24.37273661295573,16.280492146809895
76.0,0.270843505859375,0.10172526041666667,0.015894571940104168,0.186920166015625,34.92101033528646,36.37886047363281,25.798797607421875,33.6920420328776,0.033696492513020836,0.07947285970052083,0.023523966471354168,0.179290771484375,29.817581176757812,26.956558227539062,18.911361694335938,31.984965006510418
77.0,0.11380513509114583,0.2791086832682292,0.0705718994140625,0.2950032552083333,32.97233581542969,27.857462565104168,30.904134114583332,40.82934061686198,0.07502237955729167,0.0025431315104166665,0.022252400716145832,0.11698404947916667,24.045944213867188,19.966761271158855,27.37108866373698,33.59095255533854
78.0,0.1068115234375,0.050862630208333336,0.0019073486328125,0.18628438313802084,27.10278828938802,29.36553955078125,40.072123209635414,36.56323750813802,0.08837381998697917,0.14559427897135416,0.54168701171875,0.15385945638020834,19.49310302734375,24.610519409179688,32.886505126953125,25.771458943684895
79.0,0.08074442545572917,0.20535786946614584,0.0591278076171875,0.08900960286458333,24.094899495442707,38.8024648030599,38.22517395019531,23.700714111328125,0.024159749348958332,0.3007253011067708,0.02288818359375,0.040690104166666664,21.247227986653645,31.951904296875,27.65337626139323,14.949162801106771
80.0,0.06993611653645833,0.15195210774739584,0.0152587890625,0.11316935221354167,33.36143493652344,39.03516133626302,29.735565185546875,25.246938069661457,0.07184346516927083,0.026702880859375,0.16466776529947916,0.026067097981770832,29.432932535807293,28.875350952148438,20.460128784179688,23.562113444010418
81.0,0.012715657552083334,0.3172556559244792,0.055948893229166664,0.12969970703125,34.60566202799479,31.46680196126302,26.812235514322918,41.14596048990885,0.054677327473958336,0.10363260904947917,0.125885009765625,0.003814697265625,27.064005533854168,23.02106221516927,23.0255126953125,34.18159484863281
82.0,0.225067138671875,0.2918243408203125,0.0362396240234375,0.14813741048177084,29.306411743164062,23.447036743164062,37.38530476888021,40.81153869628906,0.026067097981770832,0.354766845703125,0.16911824544270834,0.14813741048177084,21.792093912760418,19.50518290201823,31.838734944661457,29.65100606282552
83.0,0.12842814127604166,0.048319498697916664,0.15195210774739584,0.14559427897135416,24.71923828125,33.85289510091146,39.57239786783854,29.747645060221355,0.1964569091796875,0.0133514404296875,0.022252400716145832,0.062306722005208336,19.4091796875,30.194600423177082,29.509226481119793,20.07611592610677
84.0,0.2759297688802083,0.09981791178385417,0.10236104329427083,0.14750162760416666,29.258092244466145,40.80518086751302,33.66661071777344,18.563588460286457,0.1983642578125,0.110626220703125,0.044504801432291664,0.012715657552083334,26.28771464029948,32.4103037516276,24.229049682617188,15.607833862304688
85.0,0.09981791178385417,0.14368693033854166,0.054677327473958336,0.0012715657552083333,33.13382466634115,36.244710286458336,25.691986083984375,33.57251485188802,0.20853678385416666,0.21235148111979166,0.18246968587239584,0.09854634602864583,28.673171997070312,27.128219604492188,19.517898559570312,31.575520833333332
86.0,0.09600321451822917,0.11698404947916667,0.20281473795572916,0.12969970703125,32.69640604654948,28.097152709960938,32.1496327718099,41.79700215657552,0.16721089680989584,0.1430511474609375,0.1068115234375,0.07375081380208333,24.584452311197918,19.443511962890625,28.489430745442707,32.90557861328125
87.0,0.036875406901041664,0.24541219075520834,0.20281473795572916,0.07692972819010417,26.105244954427082,29.389699300130207,40.16431172688802,35.88231404622396,0.13224283854166666,0.18628438313802084,0.07120768229166667,0.09409586588541667,19.023895263671875,24.854024251302082,32.56034851074219,25.23485819498698
88.0,0.08138020833333333,0.24541219075520834,0.10363260904947917,0.052769978841145836,24.65502421061198,39.5971934000651,37.26005554199219,23.00707499186198,0.1316070556640625,0.2040863037109375,0.23523966471354166,0.15131632486979166,21.876017252604168,32.60930379231771,27.093887329101562,14.314015706380209
89.0,0.2943674723307292,0.12270609537760417,0.15385945638020834,0.16848246256510416,34.070332845052086,39.32317097981771,29.097239176432293,26.11986796061198,0.06739298502604167,0.2587636311848958,0.042597452799479164,0.017801920572916668,29.7698974609375,28.86962890625,20.086924235026043,23.614883422851562
90.0,0.033060709635416664,0.08392333984375,0.11189778645833333,0.10999043782552083,35.61973571777344,31.179428100585938,25.26092529296875,41.10399881998698,0.3217061360677083,0.1201629638671875,0.022252400716145832,0.0934600830078125,27.36981709798177,22.45330810546875,21.844863891601562,34.12946065266927
91.0,0.16911824544270834,0.1010894775390625,0.006993611653645833,0.0782012939453125,29.181162516276043,25.91260274251302,37.45079040527344,40.65259297688802,0.062306722005208336,0.11316935221354167,0.07947285970052083,0.0247955322265625,21.895726521809895,20.648956298828125,31.770706176757812,29.677073160807293
92.0,0.14241536458333334,0.14813741048177084,0.0820159912109375,0.06866455078125,23.003260294596355,34.99412536621094,39.57239786783854,29.621124267578125,0.213623046875,0.07756551106770833,0.13415018717447916,0.102996826171875,18.212000528971355,30.776341756184895,29.514312744140625,19.786834716796875
93.0,0.041325887044270836,0.005086263020833333,0.0057220458984375,0.08837381998697917,29.924392700195312,39.25323486328125,33.580780029296875,19.269943237304688,0.15894571940104166,0.16276041666666666,0.09473164876302083,0.13415018717447916,26.41614278157552,31.648635864257812,24.282455444335938,16.36950174967448
94.0,0.045140584309895836,0.09473164876302083,0.029881795247395832,0.110626220703125,35.30248006184896,35.65216064453125,26.116689046223957,33.58014424641927,0.06612141927083333,0.048319498697916664,0.2530415852864583,0.13287862141927084,29.56072489420573,25.94312032063802,20.095189412434895,31.943639119466145
95.0,0.14623006184895834,0.3172556559244792,0.0012715657552083333,0.12524922688802084,33.08550516764323,26.496251424153645,32.6226552327474,41.46512349446615,0.14368693033854166,0.09091695149739583,0.0438690185546875,0.080108642578125,24.420420328776043,19.123077392578125,28.89251708984375,33.30039978027344
96.0,0.031153361002604168,0.11571248372395833,0.050226847330729164,0.037511189778645836,26.140848795572918,29.432932535807293,40.126800537109375,36.25806172688802,0.2574920654296875,0.024159749348958332,0.19200642903645834,0.0705718994140625,19.107818603515625,24.484634399414062,32.78668721516927,25.50188700358073
97.0,0.10236104329427083,0.09091695149739583,0.08328755696614583,0.12461344401041667,24.781545003255207,39.02626037597656,36.90465291341146,22.89899190266927,0.0400543212890625,0.1010894775390625,0.1697540283203125,0.4755655924479167,22.101084391276043,31.861623128255207,26.55029296875,14.389673868815104
98.0,0.008265177408854166,0.17801920572916666,0.005086263020833333,0.0025431315104166665,33.701578776041664,39.23352559407552,28.827667236328125,26.468276977539062,0.14559427897135416,0.08710225423177083,0.3172556559244792,0.3286997477213542,29.338836669921875,28.827667236328125,19.58147684733073,24.466832478841145
99.0,0.0019073486328125,0.118255615234375,0.2867380777994792,0.22824605305989584,33.81156921386719,31.04400634765625,25.949478149414062,40.89927673339844,0.034968058268229164,0.12652079264322916,0.042597452799479164,0.10172526041666667,26.28771464029948,22.129058837890625,22.85321553548177,33.83445739746094
100.0,0.095367431640625,0.0934600830078125,0.09409586588541667,0.005086263020833333,28.306325276692707,24.541219075520832,38.333892822265625,38.823445638020836,0.06930033365885417,0.07883707682291667,0.052134195963541664,0.14050801595052084,21.437327067057293,20.029067993164062,32.18841552734375,28.481165568033855
101.0,0.0057220458984375,0.20599365234375,0.09473164876302083,0.18183390299479166,23.01470438639323,35.5536142985026,40.524800618489586,28.769175211588543,0.2307891845703125,0.202178955078125,0.08710225423177083,0.033060709635416664,19.402821858723957,31.139373779296875,30.073801676432293,18.3868408203125
102.0,0.006993611653645833,0.20472208658854166,0.044504801432291664,0.10045369466145833,30.305862426757812,38.958231608072914,33.25716654459635,18.995285034179688,0.029246012369791668,0.15958150227864584,0.2651214599609375,0.045140584309895836,27.147293090820312,31.136194864908855,23.558934529622395,16.889572143554688
103.0,0.23587544759114584,0.3019968668619792,0.255584716796875,0.036875406901041664,34.49376424153646,34.72264607747396,25.803883870442707,36.1785888671875,0.025431315104166668,0.24350484212239584,0.07375081380208333,0.025431315104166668,29.27080790201823,25.774002075195312,20.16894022623698,32.89604187011719
104.0,0.2460479736328125,0.0457763671875,0.14050801595052084,0.2460479736328125,33.13891092936198,27.19561258951823,32.61693318684896,40.61762491861979,0.020345052083333332,0.052134195963541664,0.0025431315104166665,0.07883707682291667,24.40325419108073,19.741058349609375,29.020945231119793,32.57624308268229
105.0,0.16848246256510416,0.050862630208333336,0.1220703125,0.064849853515625,25.587081909179688,30.000050862630207,39.55396016438802,35.45951843261719,0.0019073486328125,0.3217061360677083,0.035603841145833336,0.033060709635416664,18.789291381835938,25.35565694173177,32.2113037109375,24.25384521484375
106.0,0.102996826171875,0.2943674723307292,0.24350484212239584,0.2676645914713542,25.501251220703125,39.42235310872396,36.921183268229164,22.789637247721355,0.044504801432291664,0.2676645914713542,0.10045369466145833,0.048955281575520836,22.49908447265625,31.746546427408855,26.987075805664062,14.278411865234375
107.0,0.031789143880208336,0.11698404947916667,0.17420450846354166,0.2676645914713542,33.91456604003906,38.07195027669271,27.834574381510418,26.265462239583332,0.125885009765625,0.21807352701822916,0.10935465494791667,0.13415018717447916,29.582977294921875,28.046925862630207,19.772847493489582,24.628957112630207
108.0,0.033060709635416664,0.045140584309895836,0.2504984537760417,0.0057220458984375,34.82882181803385,30.040740966796875,26.979446411132812,40.789286295572914,0.21044413248697916,0.2638498942057292,0.087738037109375,0.4456837972005208,26.851654052734375,21.488189697265625,23.265838623046875,33.66661071777344
109.0,0.058492024739583336,0.14241536458333334,0.13097127278645834,0.156402587890625,29.160181681315105,24.701436360677082,38.83806864420573,39.63597615559896,0.08392333984375,0.12079874674479167,0.20726521809895834,0.0782012939453125,22.10553487141927,20.485560099283855,32.457987467447914,29.211680094401043
110.0,0.13224283854166666,0.1678466796875,0.021616617838541668,0.0019073486328125,22.514979044596355,36.1785888671875,39.71036275227865,27.509053548177082,0.048955281575520836,0.4170735677083333,0.21807352701822916,0.060399373372395836,19.011179606119793,31.39495849609375,29.329935709635418,17.86486307779948
111.0,0.0457763671875,0.17547607421875,0.06612141927083333,0.050226847330729164,30.242284138997395,39.87820943196615,32.60231018066406,19.248326619466145,0.11316935221354167,0.3534952799479167,0.050862630208333336,0.17293294270833334,27.29479471842448,31.270980834960938,23.4222412109375,16.771316528320312
112.0,0.08900960286458333,0.06866455078125,0.06866455078125,0.06802876790364583,33.47142537434896,34.998575846354164,25.620142618815105,36.70692443847656,0.08710225423177083,0.118255615234375,0.00762939453125,0.0553131103515625,28.310139973958332,25.127410888671875,20.32470703125,33.312479654947914
113.0,0.07375081380208333,0.23778279622395834,0.30517578125,0.0006357828776041666,30.9295654296875,25.969823201497395,33.42374165852865,41.36021931966146,0.2155303955078125,0.08138020833333333,0.354766845703125,0.09473164876302083,23.314158121744793,19.47021484375,29.56835428873698,32.96025594075521
114.0,0.14750162760416666,0.08837381998697917,0.1239776611328125,0.041961669921875,24.587631225585938,30.67334493001302,40.03270467122396,34.53191121419271,0.0171661376953125,0.09854634602864583,0.0031789143880208335,0.13860066731770834,18.053054809570312,25.812149047851562,32.717386881510414,24.004618326822918
115.0,0.10617574055989583,0.1583099365234375,0.24477640787760416,0.021616617838541668,15.954971313476562,39.33906555175781,37.22190856933594,21.434783935546875,0.025431315104166668,0.13860066731770834,0.0209808349609375,0.033696492513020836,16.573588053385418,31.929651896158855,26.66028340657552,14.430999755859375
116.0,0.23714701334635416,0.18755594889322916,0.0286102294921875,0.09854634602864583,31.50622049967448,38.37712605794271,27.916590372721355,28.30823262532552,0.19391377766927084,0.07756551106770833,0.24477640787760416,0.008900960286458334,27.759552001953125,28.238932291666668,19.582112630208332,25.537490844726562
117.0,0.3204345703125,0.080108642578125,0.3210703531901042,0.148773193359375,33.93872578938802,30.33765157063802,27.20324198404948,41.751861572265625,0.22061665852864584,0.16148885091145834,0.15958150227864584,0.008900960286458334,25.92150370279948,21.26757303873698,23.577372233072918,34.38695271809896
118.0,0.2905527750651042,0.058492024739583336,0.003814697265625,0.102996826171875,28.807322184244793,25.084177652994793,39.545694986979164,39.83243306477865,0.07311503092447917,0.2581278483072917,0.030517578125,0.0629425048828125,21.828969319661457,20.922342936197918,32.74854024251302,28.860727945963543
119.0,0.3217061360677083,0.031789143880208336,0.213623046875,0.18564860026041666,22.552490234375,36.534627278645836,39.944966634114586,26.116689046223957,0.058492024739583336,0.2689361572265625,0.3426869710286458,0.09409586588541667,19.692103068033855,31.216939290364582,29.33502197265625,16.50683085123698
120.0,0.24541219075520834,0.213623046875,0.07947285970052083,0.1583099365234375,30.610402425130207,39.66967264811198,33.62083435058594,19.883473714192707,0.09854634602864583,0.16466776529947916,0.20090738932291666,0.07375081380208333,27.437210083007812,31.299591064453125,24.1241455078125,18.196741739908855
121.0,0.23523966471354166,0.17865498860677084,0.17102559407552084,0.1201629638671875,34.42573547363281,33.44408671061198,24.692535400390625,37.04706827799479,0.064849853515625,0.20090738932291666,0.034332275390625,0.3274281819661458,29.012680053710938,24.18200174967448,19.996007283528645,33.589680989583336
122.0,0.19200642903645834,0.17102559407552084,0.21807352701822916,0.22824605305989584,31.752904256184895,26.284535725911457,34.14726257324219,40.07657368977865,0.1239776611328125,0.2676645914713542,0.0006357828776041666,0.08646647135416667,23.255030314127605,19.533793131510418,30.353546142578125,31.51702880859375
123.0,0.013987223307291666,0.3725687662760417,0.1049041748046875,0.0591278076171875,24.489720662434895,31.014124552408855,40.0536855061849,33.92791748046875,0.050226847330729164,0.0133514404296875,0.09791056315104167,0.11189778645833333,18.315633138020832,26.204427083333332,32.292683919270836,23.066202799479168
124.0,0.07311503092447917,0.2638498942057292,0.048955281575520836,0.045140584309895836,25.063196818033855,39.3072764078776,36.54162089029948,21.628061930338543,0.09600321451822917,0.06930033365885417,0.17801920572916666,0.1621246337890625,22.095362345377605,31.37652079264323,26.083628336588543,14.761606852213541
125.0,0.12652079264322916,0.2619425455729167,0.0457763671875,0.02288818359375,34.47786966959635,37.96195983886719,27.657190958658855,28.802871704101562,0.030517578125,0.062306722005208336,0.293731689453125,0.044504801432291664,29.19769287109375,28.090159098307293,19.376118977864582,25.47772725423177
126.0,0.1583099365234375,0.5626678466796875,0.2562204996744792,0.0012715657552083333,34.15870666503906,30.235926310221355,28.14165751139323,41.70672098795573,0.015894571940104168,0.0209808349609375,0.005086263020833333,0.06103515625,25.70343017578125,20.92742919921875,24.569193522135418,34.53890482584635
127.0,0.050226847330729164,0.0896453857421875,0.1010894775390625,0.1468658447265625,27.503331502278645,24.876912434895832,39.76567586263021,38.578033447265625,0.054677327473958336,0.19963582356770834,0.1811981201171875,0.08328755696614583,21.13660176595052,21.170934041341145,32.634735107421875,27.73284912109375
128.0,0.029881795247395832,0.11952718098958333,0.006357828776041667,0.08392333984375,22.818247477213543,36.379496256510414,39.57811991373698,27.49188741048177,0.12842814127604166,0.0031789143880208335,0.039418538411458336,0.06548563639322917,19.433339436848957,31.133015950520832,29.291788736979168,17.350514729817707
129.0,0.038782755533854164,0.07120768229166667,0.11571248372395833,0.19963582356770834,31.691233317057293,39.393107096354164,31.778971354166668,20.864486694335938,0.1220703125,0.2829233805338542,0.15576680501302084,0.17229715983072916,27.9388427734375,30.84246317545573,22.787729899088543,19.372304280598957
130.0,0.3026326497395833,0.14559427897135416,0.09282430013020833,0.091552734375,34.30493672688802,34.29285685221354,24.691263834635418,38.54815165201823,0.0400543212890625,0.0629425048828125,0.2269744873046875,0.07375081380208333,28.780619303385418,24.31933085123698,20.119349161783855,33.84590148925781
131.0,0.0438690185546875,0.19391377766927084,0.0209808349609375,0.2651214599609375,32.16107686360677,25.728861490885418,34.41747029622396,42.85621643066406,0.12524922688802084,0.034332275390625,0.2848307291666667,0.18056233723958334,23.744583129882812,19.161224365234375,30.397415161132812,33.252716064453125
132.0,0.2193450927734375,0.2530415852864583,0.09218851725260417,0.008900960286458334,24.862289428710938,31.467437744140625,38.335164388020836,33.8598887125651,0.0025431315104166665,0.23587544759114584,0.2040863037109375,0.033060709635416664,18.279393513997395,26.309967041015625,31.33392333984375,22.670745849609375
133.0,0.047047932942708336,0.20154317220052084,0.17420450846354166,0.2574920654296875,26.50006612141927,38.85078430175781,36.05524698893229,21.375020345052082,0.09409586588541667,0.011444091796875,0.058492024739583336,0.08328755696614583,23.406982421875,31.63592020670573,26.24193827311198,14.6636962890625
134.0,0.16276041666666666,0.024159749348958332,0.049591064453125,0.0012715657552083333,35.085042317708336,37.40692138671875,27.662277221679688,29.802958170572918,0.4812876383463542,0.022252400716145832,0.06739298502604167,0.08646647135416667,29.45709228515625,27.767181396484375,19.616444905598957,26.54266357421875
135.0,0.10617574055989583,0.12906392415364584,0.019073486328125,0.125885009765625,33.976236979166664,29.379526774088543,28.931935628255207,42.0678456624349,0.2193450927734375,0.15195210774739584,0.010172526041666666,0.0006357828776041666,26.04357401529948,20.68010965983073,24.88390604654948,34.5617930094401
136.0,0.0012715657552083333,0.033696492513020836,0.3388722737630208,0.12715657552083334,27.87462870279948,26.1383056640625,39.2303466796875,38.6956532796224,0.072479248046875,0.029246012369791668,0.019073486328125,0.038782755533854164,21.321614583333332,22.385915120442707,31.97479248046875,28.14165751139323
137.0,0.062306722005208336,0.17229715983072916,0.057220458984375,0.21680196126302084,23.334503173828125,37.64788309733073,38.99574279785156,26.69080098470052,0.22570292154947916,0.1506805419921875,0.20726521809895834,0.4380544026692708,19.7601318359375,31.406402587890625,28.78125508626302,16.347249348958332
138.0,0.2619425455729167,0.22761027018229166,0.0400543212890625,0.0362396240234375,32.206217447916664,38.99510701497396,31.26970926920573,21.364212036132812,0.016530354817708332,0.06548563639322917,0.07184346516927083,0.036875406901041664,28.856913248697918,30.609130859375,22.726058959960938,19.571940104166668
139.0,0.027974446614583332,0.060399373372395836,0.255584716796875,0.033696492513020836,34.515380859375,33.863067626953125,24.605433146158855,38.51000467936198,0.07184346516927083,0.17484029134114584,0.056584676106770836,0.030517578125,28.713226318359375,24.332046508789062,20.253499348958332,33.185323079427086
140.0,0.037511189778645836,0.0553131103515625,0.11507670084635417,0.24286905924479166,30.959447224934895,25.915145874023438,35.797119140625,41.46575927734375,0.11126200358072917,0.2587636311848958,0.11316935221354167,0.12334187825520833,22.928237915039062,19.687652587890625,31.24237060546875,31.913121541341145
141.0,0.0782012939453125,0.2269744873046875,0.0820159912109375,0.0286102294921875,24.33331807454427,31.97924296061198,40.04478454589844,33.51275126139323,0.3414154052734375,0.029881795247395832,0.18755594889322916,0.13287862141927084,17.851511637369793,26.861826578776043,32.19032287597656,22.455851236979168
142.0,0.022252400716145832,0.0896453857421875,0.011444091796875,0.10363260904947917,27.262369791666668,38.82535298665365,36.13853454589844,21.54858907063802,0.012715657552083334,0.1430511474609375,0.21870930989583334,0.005086263020833333,24.072011311848957,31.707763671875,25.889078776041668,15.732447306315104
143.0,0.10172526041666667,0.22824605305989584,0.13987223307291666,0.17992655436197916,35.19757588704427,37.17168172200521,26.849746704101562,29.631932576497395,0.213623046875,0.11571248372395833,0.10236104329427083,0.07502237955729167,29.336293538411457,27.406692504882812,19.127527872721355,26.323318481445312
144.0,0.00762939453125,0.12461344401041667,0.20090738932291666,0.11698404947916667,34.05952453613281,28.962453206380207,28.867721557617188,41.473388671875,0.0896453857421875,0.021616617838541668,0.15385945638020834,0.16657511393229166,26.173909505208332,20.438512166341145,25.19671122233073,33.84081522623698
145.0,0.2155303955078125,0.10999043782552083,0.011444091796875,0.08519490559895833,27.475992838541668,26.349385579427082,39.258321126302086,38.202921549479164,0.2994537353515625,0.0286102294921875,0.07883707682291667,0.08646647135416667,20.709991455078125,22.49463399251302,32.17252095540365,27.097066243489582
146.0,0.25177001953125,0.3032684326171875,0.033060709635416664,0.055948893229166664,23.084640502929688,37.841796875,39.166768391927086,26.844024658203125,0.14940897623697916,0.102996826171875,0.20535786946614584,0.19582112630208334,19.854227701822918,31.457265218098957,29.11694844563802,16.736348470052082
147.0,0.1373291015625,0.1544952392578125,0.21489461263020834,0.3782908121744792,32.27551778157552,39.39119974772135,31.01030985514323,21.352132161458332,0.11380513509114583,0.19073486328125,0.034968058268229164,0.339508056640625,28.434117635091145,30.400594075520832,22.317250569661457,19.920984903971355
148.0,0.2079010009765625,0.16466776529947916,0.06612141927083333,0.010808308919270834,34.100850423177086,33.6297353108724,24.695714314778645,39.1387939453125,0.07883707682291667,0.040690104166666664,0.3210703531901042,0.0031789143880208335,28.043746948242188,24.261474609375,20.456314086914062,33.358256022135414
149.0,0.048955281575520836,0.17547607421875,0.06739298502604167,0.008265177408854166,30.759811401367188,25.17255147298177,35.36224365234375,41.508992513020836,0.043233235677083336,0.16276041666666666,0.06739298502604167,0.12969970703125,22.919972737630207,19.842147827148438,30.724843343098957,32.13055928548177
150.0,0.049591064453125,0.08710225423177083,0.2651214599609375,0.0012715657552083333,23.905436197916668,32.658894856770836,39.55650329589844,33.15416971842448,0.0896453857421875,0.045140584309895836,0.011444091796875,0.015894571940104168,18.411000569661457,27.071634928385418,31.770706176757812,22.308985392252605
151.0,0.004450480143229167,0.06612141927083333,0.10045369466145833,0.0247955322265625,27.6641845703125,39.08475240071615,35.634358723958336,20.926793416341145,0.1087188720703125,0.331878662109375,0.09218851725260417,0.11698404947916667,24.434407552083332,31.838099161783855,25.577545166015625,15.621185302734375
152.0,0.055948893229166664,0.17038981119791666,0.09473164876302083,0.03814697265625,34.914652506510414,36.98603312174479,26.830673217773438,31.561533610026043,0.012715657552083334,0.1239776611328125,0.3770192464192708,0.21107991536458334,29.447555541992188,26.7181396484375,19.278208414713543,27.811050415039062
153.0,0.006993611653645833,0.058492024739583336,0.17801920572916666,0.054677327473958336,34.11547342936198,29.16399637858073,29.408772786458332,41.5948232014974,0.1678466796875,0.087738037109375,0.1735687255859375,0.240325927734375,26.251475016276043,20.84032694498698,25.926589965820312,34.243265787760414
154.0,0.037511189778645836,0.21107991536458334,0.07565816243489583,0.006993611653645833,27.486165364583332,26.497522989908855,39.72053527832031,38.258870442708336,0.0667572021484375,0.2536773681640625,0.004450480143229167,0.0152587890625,20.700454711914062,22.750218709309895,32.20558166503906,27.119954427083332
155.0,0.09663899739583333,0.0934600830078125,0.08519490559895833,0.20726521809895834,23.560206095377605,37.991841634114586,39.14070129394531,26.088714599609375,0.057220458984375,0.14241536458333334,0.09981791178385417,0.10999043782552083,20.117441813151043,31.64990743001302,28.802871704101562,16.294479370117188
156.0,0.022252400716145832,0.056584676106770836,0.018437703450520832,0.11189778645833333,32.47388203938802,39.27739461263021,30.8990478515625,22.022247314453125,0.10236104329427083,0.0019073486328125,0.049591064453125,0.18819173177083334,28.778711954752605,30.602137247721355,21.923065185546875,20.484288533528645
157.0,0.12969970703125,0.152587890625,0.09409586588541667,0.15131632486979166,33.77532958984375,33.21075439453125,24.07391866048177,40.01617431640625,0.011444091796875,0.4170735677083333,0.061670939127604164,0.0095367431640625,28.12512715657552,24.342854817708332,20.68773905436198,33.55725606282552
158.0,0.21044413248697916,0.050862630208333336,0.11380513509114583,0.21425882975260416,30.243555704752605,25.311787923177082,35.930633544921875,42.05195109049479,0.13796488444010416,0.18564860026041666,0.22443135579427084,0.0457763671875,22.203445434570312,19.231160481770832,31.174341837565105,31.815846761067707
159.0,0.2854665120442708,0.13796488444010416,0.14750162760416666,0.029246012369791668,23.50616455078125,32.86425272623698,39.36131795247396,32.28950500488281,0.026067097981770832,0.09918212890625,0.24541219075520834,0.08455912272135417,17.856597900390625,27.58344014485677,31.688690185546875,21.830240885416668
160.0,0.21044413248697916,0.2193450927734375,0.09473164876302083,0.11761983235677083,27.651468912760418,38.294474283854164,35.68840026855469,19.742965698242188,0.047047932942708336,0.2810160319010417,0.033060709635416664,0.015894571940104168,24.060567220052082,31.12030029296875,25.231043497721355,15.530268351236979
161.0,0.1277923583984375,0.0171661376953125,0.016530354817708332,0.11126200358072917,35.16260782877604,36.70628865559896,26.572545369466145,30.253092447916668,0.13987223307291666,0.05340576171875,0.24477640787760416,0.08519490559895833,29.109954833984375,26.891708374023438,18.934249877929688,27.429580688476562
162.0,0.09473164876302083,0.09918212890625,0.0667572021484375,0.12969970703125,33.50003560384115,28.399149576822918,30.30713399251302,41.39010111490885,0.4030863444010417,0.14813741048177084,0.0743865966796875,0.0025431315104166665,25.730133056640625,20.23633321126302,26.140213012695312,33.843994140625
163.0,0.09409586588541667,0.06421407063802083,0.11889139811197917,0.034968058268229164,26.85991923014323,27.791976928710938,40.021260579427086,35.93126932779948,0.13987223307291666,0.23905436197916666,0.0286102294921875,0.0324249267578125,20.000457763671875,22.9644775390625,32.31493631998698,25.815963745117188
164.0,0.045140584309895836,0.4329681396484375,0.102996826171875,0.037511189778645836,23.424784342447918,38.70519002278646,39.029439290364586,25.07781982421875,0.2657572428385417,0.018437703450520832,0.18310546875,0.10999043782552083,20.143508911132812,31.70013427734375,28.790791829427082,15.997568766276041
165.0,0.048955281575520836,0.1316070556640625,0.08455912272135417,0.012715657552083334,32.55907694498698,38.93470764160156,30.70831298828125,22.983551025390625,0.15894571940104166,0.213623046875,0.270843505859375,0.17801920572916666,28.867721557617188,30.234018961588543,21.646499633789062,20.741780598958332
166.0,0.3058115641276042,0.0858306884765625,0.045140584309895836,0.021616617838541668,33.67932637532552,33.34236145019531,24.896621704101562,40.264129638671875,0.09918212890625,0.048955281575520836,0.14750162760416666,0.021616617838541668,28.088887532552082,23.790995279947918,21.375020345052082,33.66216023763021
167.0,0.014623006184895834,0.040690104166666664,0.012079874674479166,0.091552734375,30.558268229166668,25.264739990234375,36.865234375,41.38819376627604,0.13478597005208334,0.0782012939453125,0.24350484212239584,0.2848307291666667,21.886189778645832,20.186106363932293,31.71857198079427,31.361897786458332
168.0,0.029881795247395832,0.12143452962239583,0.12334187825520833,0.11952718098958333,22.81634012858073,33.97814432779948,39.744059244791664,31.831741333007812,0.09282430013020833,0.0782012939453125,0.12461344401041667,0.020345052083333332,17.711639404296875,28.196970621744793,31.626383463541668,21.387736002604168
169.0,0.22443135579427084,0.035603841145833336,0.0934600830078125,0.023523966471354168,27.116139729817707,39.72625732421875,35.736083984375,19.901275634765625,0.040690104166666664,0.18946329752604166,0.1583099365234375,0.12906392415364584,24.0936279296875,31.341552734375,24.81396993001302,16.000747680664062
170.0,0.062306722005208336,0.240325927734375,0.21680196126302084,0.034968058268229164,33.83763631184896,36.97013854980469,25.7415771484375,33.10839335123698,0.16085306803385416,0.18310546875,0.18946329752604166,0.023523966471354168,28.433481852213543,27.246475219726562,18.81853739420573,29.345194498697918
171.0,0.2695719401041667,0.08837381998697917,0.11126200358072917,0.1354217529296875,33.46697489420573,28.657277425130207,29.97144063313802,41.55667622884115,0.07120768229166667,0.14495849609375,0.037511189778645836,0.019709269205729168,25.624593098958332,20.055770874023438,25.971730550130207,33.6297353108724
172.0,0.052134195963541664,0.18564860026041666,0.19073486328125,0.24859110514322916,26.24066670735677,27.871449788411457,40.08293151855469,38.098653157552086,0.019709269205729168,0.1735687255859375,0.23651123046875,0.08837381998697917,19.357681274414062,23.403167724609375,32.869974772135414,26.78998311360677
173.0,0.027338663736979168,0.1068115234375,0.179290771484375,0.039418538411458336,22.11316426595052,38.608551025390625,38.6956532796224,24.831136067708332,0.006357828776041667,0.17102559407552084,0.22824605305989584,0.11952718098958333,20.708084106445312,31.280517578125,28.425216674804688,16.176859537760418
174.0,0.0743865966796875,0.13224283854166666,0.23651123046875,0.10426839192708333,32.819112141927086,37.78839111328125,29.853185017903645,23.420969645182293,0.048319498697916664,0.08837381998697917,0.020345052083333332,0.1010894775390625,28.889973958333332,29.254913330078125,20.954132080078125,21.19763692220052
175.0,0.029881795247395832,0.09854634602864583,0.09218851725260417,0.09663899739583333,33.854166666666664,32.61756896972656,24.831771850585938,40.84968566894531,0.22824605305989584,0.18564860026041666,0.0591278076171875,0.17992655436197916,28.09588114420573,23.663838704427082,21.046956380208332,33.43391418457031
176.0,0.006357828776041667,0.10617574055989583,0.06612141927083333,0.15767415364583334,31.387964884440105,24.780909220377605,36.3610585530599,40.4815673828125,0.1220703125,0.0286102294921875,0.0438690185546875,0.030517578125,22.897084554036457,20.219167073567707,31.599680582682293,30.717849731445312
177.0,0.11380513509114583,0.19009908040364584,0.07120768229166667,0.179290771484375,24.793624877929688,34.245808919270836,39.43506876627604,31.346638997395832,0.4399617513020833,0.11507670084635417,0.06548563639322917,0.047047932942708336,19.134521484375,28.73675028483073,31.24237060546875,21.310806274414062
178.0,0.22188822428385416,0.038782755533854164,0.15195210774739584,0.10172526041666667,28.809865315755207,39.09746805826823,35.19757588704427,20.139058430989582,0.07692972819010417,0.12270609537760417,0.152587890625,0.07565816243489583,25.443394978841145,31.39940897623698,24.63976542154948,16.356786092122395
179.0,0.0591278076171875,0.14750162760416666,0.21616617838541666,0.042597452799479164,33.15289815266927,36.364237467447914,25.2838134765625,33.6151123046875,0.044504801432291664,0.0858306884765625,0.0667572021484375,0.07311503092447917,28.955459594726562,27.1453857421875,19.32525634765625,29.657999674479168
180.0,0.110626220703125,0.1220703125,0.012715657552083334,0.21107991536458334,34.06588236490885,28.062820434570312,32.1044921875,41.44732157389323,0.152587890625,0.11698404947916667,0.036875406901041664,0.07756551106770833,26.010513305664062,20.159403483072918,27.055740356445312,33.465067545572914
181.0,0.08455912272135417,0.11761983235677083,0.17611185709635416,0.0553131103515625,26.895523071289062,27.545928955078125,39.90872701009115,37.045796712239586,0.3229777018229167,0.050226847330729164,0.07692972819010417,0.2714792887369792,19.732157389322918,23.596445719401043,32.24309285481771,26.63103739420573
182.0,0.0286102294921875,0.1544952392578125,0.13097127278645834,0.11189778645833333,23.1475830078125,38.76304626464844,38.441975911458336,22.790908813476562,0.21616617838541666,0.041325887044270836,0.010808308919270834,0.125885009765625,20.819981892903645,31.480153401692707,28.22430928548177,14.339447021484375
183.0,0.10045369466145833,0.13987223307291666,0.0324249267578125,0.019073486328125,33.89612833658854,38.5284423828125,30.72675069173177,24.779637654622395,0.110626220703125,0.06421407063802083,0.16911824544270834,0.0025431315104166665,29.387791951497395,29.815038045247395,21.05267842610677,22.181193033854168
184.0,0.06930033365885417,0.044504801432291664,0.09600321451822917,0.06103515625,34.20702616373698,32.29077657063802,24.957656860351562,40.80073038736979,0.13033548990885416,0.16530354817708334,0.11571248372395833,0.012079874674479166,27.588526407877605,23.259480794270832,21.637598673502605,33.60875447591146
185.0,0.035603841145833336,0.10999043782552083,0.148773193359375,0.02288818359375,30.970255533854168,24.57873026529948,37.72799173990885,40.81598917643229,0.22570292154947916,0.06930033365885417,0.06612141927083333,0.0934600830078125,22.160847981770832,20.522435506184895,31.610488891601562,31.243642171223957
186.0,0.17547607421875,0.1468658447265625,0.446319580078125,0.2791086832682292,24.003346761067707,34.32655334472656,38.640340169270836,29.790878295898438,0.006993611653645833,0.1430511474609375,0.24096171061197916,0.035603841145833336,18.502553304036457,28.763453165690105,30.846913655598957,20.595550537109375
187.0,0.15004475911458334,0.17420450846354166,0.16085306803385416,0.1964569091796875,29.409408569335938,39.11463419596354,34.450531005859375,19.056320190429688,0.133514404296875,0.2791086832682292,0.046412150065104164,0.1659393310546875,25.64684549967448,31.496683756510418,23.97918701171875,16.196568806966145
188.0,0.06548563639322917,0.00762939453125,0.06802876790364583,0.0667572021484375,34.66033935546875,36.211649576822914,25.34039815266927,33.40911865234375,0.2511342366536458,0.18819173177083334,0.0133514404296875,0.11761983235677083,29.276529947916668,26.617685953776043,18.76513163248698,29.970804850260418
189.0,0.1544952392578125,0.12524922688802084,0.1468658447265625,0.0972747802734375,34.99666849772135,27.933756510416668,31.3262939453125,41.49500528971354,0.025431315104166668,0.016530354817708332,0.07120768229166667,0.030517578125,26.387532552083332,19.87457275390625,27.177810668945312,33.564249674479164
190.0,0.091552734375,0.0553131103515625,0.3407796223958333,0.08392333984375,26.754379272460938,29.718399047851562,40.387471516927086,37.349700927734375,0.0006357828776041666,0.10426839192708333,0.2536773681640625,0.23015340169270834,19.416173299153645,24.785995483398438,32.30985005696615,26.888529459635418
191.0,0.4126230875651042,0.18628438313802084,0.10045369466145833,0.2918243408203125,23.668924967447918,39.60100809733073,38.738250732421875,24.017969767252605,0.026067097981770832,0.20535786946614584,0.21425882975260416,0.02288818359375,21.094640096028645,31.55962626139323,28.66045633951823,15.43426513671875
192.0,0.2911885579427083,0.22570292154947916,0.30517578125,0.11698404947916667,33.51275126139323,37.77249654134115,29.408772786458332,25.39507548014323,0.18819173177083334,0.005086263020833333,0.2714792887369792,0.0934600830078125,29.241561889648438,28.373082478841145,20.362218221028645,22.675832112630207
193.0,0.0972747802734375,0.125885009765625,0.07692972819010417,0.22443135579427084,33.69776407877604,31.983057657877605,25.411605834960938,39.33906555175781,0.15004475911458334,0.14368693033854166,0.11889139811197917,0.12334187825520833,27.830123901367188,23.311614990234375,21.953582763671875,32.0892333984375
194.0,0.026702880859375,0.06866455078125,0.062306722005208336,0.194549560546875,29.551188151041668,24.560928344726562,37.9187266031901,39.639790852864586,0.0514984130859375,0.0514984130859375,0.17865498860677084,0.033060709635416664,21.013259887695312,20.392100016276043,31.82538350423177,30.008316040039062
195.0,0.1316070556640625,0.08328755696614583,0.0031789143880208335,0.006357828776041667,23.35039774576823,35.33490498860677,38.944244384765625,29.764811197916668,0.09028116861979167,0.2040863037109375,0.15576680501302084,0.217437744140625,18.248240152994793,29.262542724609375,30.989329020182293,20.760854085286457
196.0,0.15385945638020834,0.07311503092447917,0.09918212890625,0.0209808349609375,28.97961934407552,39.12480672200521,34.65843200683594,20.17974853515625,0.029246012369791668,0.06103515625,0.031153361002604168,0.030517578125,25.212605794270832,31.43628438313802,23.797988891601562,16.8914794921875
197.0,0.13415018717447916,0.13224283854166666,0.012079874674479166,0.11189778645833333,35.58921813964844,35.74180603027344,25.536855061848957,35.72209676106771,0.0025431315104166665,0.17420450846354166,0.005086263020833333,0.008900960286458334,29.5562744140625,26.48480733235677,18.766403198242188,31.463623046875
198.0,0.16848246256510416,0.3121693929036458,0.010808308919270834,0.055948893229166664,35.28658548990885,27.068456013997395,30.606587727864582,41.534423828125,0.010172526041666666,0.1811981201171875,0.05340576171875,0.263214111328125,26.655197143554688,19.159317016601562,26.67554219563802,33.28577677408854
199.0,0.12652079264322916,0.11952718098958333,0.019709269205729168,0.15195210774739584,26.456197102864582,30.287424723307293,39.66585795084635,35.65533955891927,0.040690104166666664,0.3636678059895833,0.037511189778645836,0.2384185791015625,19.176483154296875,24.97418721516927,31.96398417154948,25.262196858723957
200.0,0.15195210774739584,0.16466776529947916,0.0171661376953125,0.22824605305989584,21.833419799804688,39.89283243815104,38.106282552083336,23.234049479166668,0.031789143880208336,0.006357828776041667,0.1239776611328125,0.014623006184895834,21.551132202148438,31.17688496907552,27.669906616210938,14.965057373046875
201.0,0.0133514404296875,0.12524922688802084,0.034332275390625,0.1392364501953125,33.823649088541664,37.77186075846354,29.917399088541668,26.988983154296875,0.4494984944661458,0.23142496744791666,0.06993611653645833,0.029881795247395832,28.778076171875,28.702418009440105,20.436604817708332,24.02178446451823
202.0,0.12270609537760417,0.213623046875,0.026067097981770832,0.034968058268229164,33.05689493815104,31.160354614257812,23.873011271158855,41.62025451660156,0.2002716064453125,0.1201629638671875,0.22125244140625,0.110626220703125,27.66100565592448,22.705713907877605,21.750132242838543,33.99848937988281
203.0,0.09981791178385417,0.2511342366536458,0.13415018717447916,0.0591278076171875,29.57471211751302,24.18835957845052,38.387298583984375,39.05169169108073,0.08837381998697917,0.20090738932291666,0.1010894775390625,0.2778371175130208,21.134058634440105,20.463943481445312,31.730016072591145,29.019673665364582
204.0,0.20281473795572916,0.2702077229817708,0.056584676106770836,0.19009908040364584,21.155039469401043,35.3234608968099,38.75732421875,28.963088989257812,0.17611185709635416,0.12270609537760417,0.031153361002604168,0.022252400716145832,17.522811889648438,29.596964518229168,30.974070231119793,19.67620849609375
205.0,0.09091695149739583,0.03814697265625,0.13987223307291666,0.10363260904947917,30.274709065755207,38.6346181233724,35.71891784667969,19.222259521484375,0.048955281575520836,0.024159749348958332,0.2524058024088542,0.0209808349609375,26.0009765625,30.963897705078125,24.847666422526043,16.091664632161457
206.0,0.008265177408854166,0.16339619954427084,0.25177001953125,0.21616617838541666,35.65406799316406,34.49821472167969,25.339762369791668,35.741170247395836,0.012079874674479166,0.003814697265625,0.20917256673177084,0.0457763671875,29.198964436848957,25.660196940104168,19.362131754557293,31.175613403320312
207.0,0.08900960286458333,0.194549560546875,0.06930033365885417,0.0012715657552083333,35.17468770345052,26.755015055338543,32.9278310139974,41.684468587239586,0.3312428792317708,0.19709269205729166,0.08900960286458333,0.1773834228515625,25.822957356770832,19.237518310546875,27.83648173014323,32.89031982421875
208.0,0.14177958170572916,0.08646647135416667,0.057856241861979164,0.1068115234375,26.19489034016927,31.491597493489582,40.01490275065104,34.15362040201823,0.011444091796875,0.057856241861979164,0.12270609537760417,0.2695719401041667,19.193649291992188,25.80706278483073,32.34291076660156,23.688634236653645
209.0,0.16466776529947916,0.0025431315104166665,0.10426839192708333,0.02288818359375,21.783828735351562,39.5654042561849,39.57303365071615,22.642771402994793,0.06993611653645833,0.095367431640625,0.12334187825520833,0.3636678059895833,21.139780680338543,31.606674194335938,28.57208251953125,14.734903971354166
210.0,0.046412150065104164,0.2765655517578125,0.3426869710286458,0.3757476806640625,35.18358866373698,36.273956298828125,30.066172281901043,28.02276611328125,0.10363260904947917,0.14050801595052084,0.010808308919270834,0.014623006184895834,29.512405395507812,28.107961018880207,20.692825317382812,24.693806966145832
211.0,0.08392333984375,0.17420450846354166,0.09028116861979167,0.1373291015625,34.426371256510414,30.537923177083332,23.75348409016927,41.90889994303385,0.07120768229166667,0.1468658447265625,0.0858306884765625,0.2549489339192708,28.14038594563802,22.172292073567707,21.839141845703125,34.25153096516927
212.0,0.17293294270833334,0.4444122314453125,0.072479248046875,0.06802876790364583,30.523300170898438,24.583180745442707,39.08220926920573,39.600372314453125,0.005086263020833333,0.15513102213541666,0.3782908121744792,0.024159749348958332,22.25939432779948,20.665486653645832,32.14263916015625,29.809315999348957
213.0,0.049591064453125,0.12524922688802084,0.17229715983072916,0.24159749348958334,22.546768188476562,35.92236836751302,39.14070129394531,28.83466084798177,0.052134195963541664,0.017801920572916668,0.0896453857421875,0.0934600830078125,18.719991048177082,29.486338297526043,30.848185221354168,19.507726033528645
214.0,0.263214111328125,0.3706614176432292,0.054677327473958336,0.0095367431640625,30.295689900716145,39.395650227864586,34.47659810384115,20.124435424804688,0.09091695149739583,0.4456837972005208,0.011444091796875,0.1049041748046875,26.045481363932293,30.66571553548177,24.037679036458332,17.363230387369793
215.0,0.3312428792317708,0.0171661376953125,0.09409586588541667,0.21489461263020834,35.0341796875,35.381317138671875,24.935404459635418,36.3457997639974,0.16085306803385416,0.1964569091796875,0.054677327473958336,0.035603841145833336,29.104232788085938,25.705973307291668,19.57257588704427,31.205495198567707
216.0,0.102996826171875,0.225067138671875,0.056584676106770836,0.052134195963541664,33.76007080078125,26.817957560221355,32.91956583658854,41.675567626953125,0.1201629638671875,0.2079010009765625,0.0133514404296875,0.17229715983072916,25.163014729817707,19.508997599283855,27.453104654947918,32.92274475097656
217.0,0.10553995768229167,0.2117156982421875,0.0012715657552083333,0.07756551106770833,25.657018025716145,32.13818868001302,39.85404968261719,35.962422688802086,0.058492024739583336,0.029246012369791668,0.12524922688802084,0.15513102213541666,18.791834513346355,26.306788126627605,32.10576375325521,25.171279907226562
218.0,0.033060709635416664,0.133514404296875,0.2765655517578125,0.18628438313802084,21.7132568359375,40.560404459635414,38.53925069173177,22.904713948567707,0.059763590494791664,0.3484090169270833,0.030517578125,0.091552734375,21.656036376953125,32.23546346028646,28.306961059570312,15.134811401367188
219.0,0.11316935221354167,0.2600351969401042,0.0782012939453125,0.0476837158203125,33.75244140625,36.7889404296875,29.69678243001302,28.532663981119793,0.2040863037109375,0.1678466796875,0.21425882975260416,0.0820159912109375,28.829574584960938,28.180440266927082,20.731608072916668,25.647481282552082
220.0,0.1773834228515625,0.1430511474609375,0.11444091796875,0.202178955078125,32.73646036783854,30.60150146484375,24.475733439127605,41.323343912760414,0.046412150065104164,0.4507700602213542,0.3064473470052083,0.11889139811197917,27.032216389973957,21.76221211751302,23.087819417317707,33.55534871419271
221.0,0.12079874674479167,0.19518534342447916,0.019709269205729168,0.00762939453125,29.963175455729168,24.336496988932293,38.449605305989586,37.88948059082031,0.21425882975260416,0.045140584309895836,0.022252400716145832,0.20535786946614584,21.270751953125,20.77166239420573,31.511306762695312,29.136021931966145
222.0,0.16848246256510416,0.06357828776041667,0.056584676106770836,0.054041544596354164,22.068023681640625,37.0635986328125,39.17249043782552,28.04120381673177,0.0438690185546875,0.12143452962239583,0.15703837076822916,0.22188822428385416,18.697102864583332,30.15899658203125,31.077067057291668,19.322713216145832
223.0,0.080108642578125,0.3159840901692708,0.232696533203125,0.040690104166666664,31.192779541015625,39.913177490234375,34.01756286621094,20.01953125,0.11126200358072917,0.18374125162760416,0.024159749348958332,0.0934600830078125,26.536941528320312,31.317392985026043,23.49090576171875,17.32635498046875
224.0,0.24286905924479166,0.141143798828125,0.0019073486328125,0.03814697265625,34.57450866699219,35.67186991373698,24.663925170898438,36.8048350016276,0.14368693033854166,0.2733866373697917,0.13478597005208334,0.049591064453125,28.853098551432293,25.609970092773438,19.95404561360677,31.583786010742188
225.0,0.057856241861979164,0.12715657552083334,0.1850128173828125,0.2924601236979167,33.21266174316406,26.465098063151043,33.62337748209635,42.10853576660156,0.2886454264322917,0.3541310628255208,0.11380513509114583,0.10999043782552083,25.313695271809895,19.289652506510418,28.763453165690105,33.45044453938802
226.0,0.13415018717447916,0.2892812093098958,0.19709269205729166,0.09282430013020833,25.531768798828125,31.768163045247395,41.18919372558594,35.66869099934896,0.13287862141927084,0.048955281575520836,0.2307891845703125,0.23714701334635416,18.962860107421875,26.430130004882812,32.45862325032552,24.545669555664062
227.0,0.18564860026041666,0.0629425048828125,0.012079874674479166,0.005086263020833333,22.106170654296875,39.128621419270836,38.56722513834635,21.963119506835938,0.3808339436848958,0.10363260904947917,0.08138020833333333,0.12652079264322916,22.388458251953125,31.030019124348957,27.876536051432293,14.950434366861979
228.0,0.102996826171875,0.16339619954427084,0.11571248372395833,0.11189778645833333,34.41683451334635,35.20838419596354,28.891245524088543,29.136021931966145,0.3668467203776042,0.033060709635416664,0.0762939453125,0.11126200358072917,29.13347880045573,27.399063110351562,20.367940266927082,25.190989176432293
229.0,0.040690104166666664,0.19963582356770834,0.08328755696614583,0.06930033365885417,33.60875447591146,30.959447224934895,24.183909098307293,42.101542154947914,0.213623046875,0.037511189778645836,0.2676645914713542,0.025431315104166668,27.41241455078125,22.25939432779948,23.307164510091145,33.748626708984375
230.0,0.23206075032552084,0.0514984130859375,0.2841949462890625,0.2562204996744792,28.313954671223957,24.83685811360677,39.35941060384115,37.18439737955729,0.10744730631510417,0.006357828776041667,0.16530354817708334,0.09981791178385417,20.846048990885418,21.356582641601562,31.81012471516927,28.321584065755207
231.0,0.28228759765625,0.217437744140625,0.013987223307291666,0.09981791178385417,22.998809814453125,37.01210021972656,38.6053721110026,28.400421142578125,0.21235148111979166,0.3064473470052083,0.17801920572916666,0.08265177408854167,19.281387329101562,30.127207438151043,30.180613199869793,18.825531005859375
232.0,0.1850128173828125,0.2733866373697917,0.22188822428385416,0.013987223307291666,31.122207641601562,38.88511657714844,33.21520487467448,19.730885823567707,0.12906392415364584,0.1430511474609375,0.039418538411458336,0.07311503092447917,27.10405985514323,30.810038248697918,23.046493530273438,17.518997192382812
233.0,0.1373291015625,0.24477640787760416,0.14177958170572916,0.14368693033854166,34.72264607747396,34.90130106608073,24.513880411783855,37.51691182454427,0.2657572428385417,0.1468658447265625,0.029246012369791668,0.1583099365234375,28.514862060546875,25.065104166666668,19.891103108723957,31.95635477701823
234.0,0.1506805419921875,0.19200642903645834,0.20090738932291666,0.10236104329427083,32.36071268717448,26.677449544270832,33.72001647949219,41.08492533365885,0.0095367431640625,0.059763590494791664,0.0324249267578125,0.031153361002604168,24.575551350911457,19.570032755533855,28.775533040364582,32.31239318847656
235.0,0.12906392415364584,0.293731689453125,0.13987223307291666,0.1964569091796875,25.295257568359375,31.354268391927082,40.028889973958336,34.37678019205729,0.21680196126302084,0.3299713134765625,0.061670939127604164,0.10172526041666667,18.901824951171875,26.1077880859375,32.1051279703776,23.64031473795573
236.0,0.06739298502604167,0.027974446614583332,0.062306722005208336,0.037511189778645836,22.757212320963543,39.91254170735677,37.65424092610677,22.507985432942707,0.1010894775390625,0.062306722005208336,0.046412150065104164,0.07883707682291667,23.433685302734375,31.39940897623698,27.451197306315105,15.045801798502604
237.0,0.056584676106770836,0.1811981201171875,0.13987223307291666,0.2880096435546875,34.46006774902344,36.31019592285156,27.956644694010418,28.45446268717448,0.10935465494791667,0.09854634602864583,0.07502237955729167,0.041325887044270836,28.79015604654948,28.386433919270832,20.345052083333332,25.271097819010418
238.0,0.2307891845703125,0.031153361002604168,0.10617574055989583,0.0006357828776041666,33.07533264160156,30.655543009440105,24.199167887369793,41.49564107259115,0.156402587890625,0.2676645914713542,0.08074442545572917,0.045140584309895836,27.07227071126302,21.837870279947918,23.83740743001302,33.34363301595052
239.0,0.10935465494791667,0.0006357828776041666,0.3452301025390625,0.10617574055989583,28.330485026041668,25.80706278483073,41.010538736979164,38.12472025553385,0.13224283854166666,0.16085306803385416,0.015894571940104168,0.006357828776041667,20.957310994466145,22.220611572265625,32.39568074544271,29.17035420735677
240.0,0.12143452962239583,0.4819234212239583,0.06103515625,0.13987223307291666,22.500991821289062,36.504109700520836,39.01863098144531,28.183619181315105,0.038782755533854164,0.12969970703125,0.1163482666015625,0.10553995768229167,19.527435302734375,29.961903889973957,30.097325642903645,18.185933430989582
241.0,0.13224283854166666,0.1850128173828125,0.0553131103515625,0.13478597005208334,31.946182250976562,38.761138916015625,32.38741556803385,19.766489664713543,0.2117156982421875,0.202178955078125,0.15513102213541666,0.008265177408854166,27.388890584309895,30.841827392578125,22.599538167317707,18.360137939453125
242.0,0.14559427897135416,0.049591064453125,0.3070831298828125,0.2524058024088542,33.894856770833336,34.77287292480469,24.013519287109375,37.65551249186198,0.102996826171875,0.010172526041666666,0.0133514404296875,0.09409586588541667,28.17217508951823,25.337855021158855,20.000457763671875,31.976699829101562
243.0,0.0095367431640625,0.07947285970052083,0.008265177408854166,0.1068115234375,31.285603841145832,26.086171468098957,34.54017639160156,40.959676106770836,0.2988179524739583,0.023523966471354168,0.012715657552083334,0.14368693033854166,24.170557657877605,19.100189208984375,29.285430908203125,32.063802083333336
244.0,0.12842814127604166,0.10363260904947917,0.0019073486328125,0.1201629638671875,25.078455607096355,31.48969014485677,40.2367909749349,34.30493672688802,0.07120768229166667,0.0006357828776041666,0.4475911458333333,0.1430511474609375,18.51336161295573,26.46319071451823,32.08287556966146,23.698170979817707
245.0,0.044504801432291664,0.0362396240234375,0.09218851725260417,0.15513102213541666,22.83795674641927,39.1381581624349,37.120819091796875,19.735336303710938,0.34332275390625,0.11380513509114583,0.179290771484375,0.20281473795572916,23.34149678548177,31.12347920735677,27.155558268229168,14.026641845703125
246.0,0.2524058024088542,0.0743865966796875,0.095367431640625,0.13287862141927084,35.49512227376302,36.29112243652344,27.823766072591145,28.822580973307293,0.2269744873046875,0.3153483072916667,0.059763590494791664,0.12461344401041667,28.481801350911457,28.561909993489582,20.33233642578125,25.226593017578125
247.0,0.054677327473958336,0.12652079264322916,0.23905436197916666,0.21425882975260416,32.5781504313151,29.841105143229168,23.832956949869793,42.49699910481771,0.08837381998697917,0.2816518147786458,0.024159749348958332,0.13987223307291666,26.639302571614582,21.277109781901043,24.747848510742188,33.968607584635414
248.0,0.2288818359375,0.19200642903645834,0.0006357828776041666,0.056584676106770836,28.411229451497395,24.974822998046875,40.331522623697914,37.53789265950521,0.1049041748046875,0.1621246337890625,0.0006357828776041666,0.045140584309895836,20.81298828125,22.022247314453125,31.794230143229168,29.261271158854168
249.0,0.0095367431640625,0.20917256673177084,0.0152587890625,0.037511189778645836,22.200266520182293,37.59193420410156,38.782755533854164,28.45001220703125,0.10236104329427083,0.1621246337890625,0.029881795247395832,0.12334187825520833,19.036610921223957,30.305862426757812,29.787063598632812,17.878214518229168
250.0,0.0362396240234375,0.095367431640625,0.07311503092447917,0.1220703125,32.216389973958336,38.546244303385414,32.26343790690104,20.536422729492188,0.059763590494791664,0.3382364908854167,0.031789143880208336,0.041961669921875,28.203328450520832,30.64282735188802,22.725423177083332,19.488016764322918
251.0,0.1659393310546875,0.049591064453125,0.033060709635416664,0.0209808349609375,35.16960144042969,35.037994384765625,23.931503295898438,38.318634033203125,0.07120768229166667,0.1277923583984375,0.058492024739583336,0.24096171061197916,28.616587320963543,25.3448486328125,19.756317138671875,32.02692667643229
252.0,0.0782012939453125,0.5435943603515625,0.18819173177083334,0.1735687255859375,30.832926432291668,25.652567545572918,34.39966837565104,41.20635986328125,0.19582112630208334,0.07947285970052083,0.049591064453125,0.010172526041666666,23.539225260416668,19.666035970052082,29.399871826171875,31.826019287109375
253.0,0.15195210774739584,0.1926422119140625,0.025431315104166668,0.15894571940104166,24.886449178059895,31.725565592447918,40.12298583984375,34.48295593261719,0.10808308919270833,0.12969970703125,0.059763590494791664,0.043233235677083336,18.872578938802082,26.44030253092448,31.852086385091145,23.651123046875
254.0,0.15958150227864584,0.036875406901041664,0.14432271321614584,0.1373291015625,23.346583048502605,39.731343587239586,36.62300109863281,20.641326904296875,0.07120768229166667,0.3064473470052083,0.3573099772135417,0.16339619954427084,24.392445882161457,31.743367513020832,26.945749918619793,14.867146809895834
255.0,0.19772847493489584,0.1468658447265625,0.025431315104166668,0.07565816243489583,35.891215006510414,35.961151123046875,27.099609375,29.74255879720052,0.14432271321614584,0.006993611653645833,0.046412150065104164,0.06357828776041667,29.462178548177082,28.181711832682293,19.45050557454427,25.948206583658855
256.0,0.3376007080078125,0.3261566162109375,0.14432271321614584,0.052134195963541664,32.62138366699219,30.902862548828125,25.307337443033855,42.06275939941406,0.0362396240234375,0.0553131103515625,0.21107991536458334,0.14177958170572916,26.475906372070312,21.659215291341145,25.198618570963543,33.97305806477865
257.0,0.031153361002604168,0.1544952392578125,0.008265177408854166,0.054041544596354164,26.71368916829427,25.472005208333332,40.2978261311849,36.61410013834635,0.1220703125,0.11316935221354167,0.415802001953125,0.026702880859375,20.432154337565105,22.46538798014323,32.124837239583336,27.853012084960938
258.0,0.16911824544270834,0.225067138671875,0.1163482666015625,0.18628438313802084,21.097819010416668,38.37458292643229,38.421630859375,27.75891621907552,0.0476837158203125,0.0095367431640625,0.15894571940104166,0.09282430013020833,18.828709920247395,29.96508280436198,29.958724975585938,17.604827880859375
259.0,0.17420450846354166,0.06548563639322917,0.060399373372395836,0.15195210774739584,31.884511311848957,38.75414530436198,31.780242919921875,20.475387573242188,0.040690104166666664,0.09409586588541667,0.1049041748046875,0.07756551106770833,27.704238891601562,30.571619669596355,22.492090861002605,19.014994303385418
260.0,0.15131632486979166,0.1277923583984375,0.3414154052734375,0.095367431640625,33.89422098795573,34.50202941894531,24.349212646484375,39.94623819986979,0.010808308919270834,0.3922780354817708,0.026702880859375,0.1163482666015625,28.13275655110677,24.995803833007812,20.073572794596355,32.27678934733073
261.0,0.11316935221354167,0.10363260904947917,0.036875406901041664,0.14623006184895834,31.773885091145832,25.700887044270832,36.136627197265625,41.0772959391276,0.055948893229166664,0.06739298502604167,0.12969970703125,0.045140584309895836,24.412155151367188,19.570668538411457,30.925750732421875,31.766255696614582
262.0,0.10999043782552083,0.22061665852864584,0.125885009765625,0.1373291015625,25.264739990234375,31.236012776692707,40.13188680013021,33.548990885416664,0.11444091796875,0.027974446614583332,0.09981791178385417,0.017801920572916668,19.090016682942707,26.37163798014323,31.982421875,23.181915283203125
263.0,0.0025431315104166665,0.048955281575520836,0.06930033365885417,0.1926422119140625,24.596532185872395,39.581298828125,36.91673278808594,21.113077799479168,0.21680196126302084,0.09409586588541667,0.17611185709635416,0.0019073486328125,24.728139241536457,31.279881795247395,26.891072591145832,15.123367309570312
264.0,0.040690104166666664,0.14750162760416666,0.030517578125,0.2816518147786458,35.99866231282552,36.10356648763021,27.16827392578125,30.427932739257812,0.2772013346354167,0.12969970703125,0.3903706868489583,0.0591278076171875,29.066085815429688,28.264999389648438,19.346872965494793,26.514689127604168
265.0,0.09854634602864583,0.4138946533203125,0.0025431315104166665,0.014623006184895834,32.69068400065104,29.67071533203125,25.32641092936198,41.23687744140625,0.057856241861979164,0.12715657552083334,0.110626220703125,0.125885009765625,26.563008626302082,20.833333333333332,25.452295939127605,33.18150838216146
266.0,0.010172526041666666,0.0209808349609375,0.16339619954427084,0.027974446614583332,28.466542561848957,25.683085123697918,39.9634043375651,37.15324401855469,0.0457763671875,0.0025431315104166665,0.22188822428385416,0.1544952392578125,20.715713500976562,22.96765645345052,32.25135803222656,27.994155883789062
267.0,0.22761027018229166,0.13796488444010416,0.041325887044270836,0.013987223307291666,22.921244303385418,38.03825378417969,38.912455240885414,27.17145284016927,0.033696492513020836,0.10999043782552083,0.026067097981770832,0.0057220458984375,19.646962483723957,30.20795186360677,29.83538309733073,17.1966552734375
268.0,0.07565816243489583,0.015894571940104168,0.029246012369791668,0.052134195963541664,32.38614400227865,38.96013895670573,32.18905131022135,20.690282185872395,0.1163482666015625,0.1087188720703125,0.017801920572916668,0.0972747802734375,28.35845947265625,30.48388163248698,22.36175537109375,20.262400309244793
269.0,0.12079874674479167,0.045140584309895836,0.046412150065104164,0.3229777018229167,33.44853719075521,34.82691446940104,24.240493774414062,36.96568806966146,0.1068115234375,0.07692972819010417,0.10999043782552083,0.14050801595052084,27.4810791015625,24.557749430338543,20.245869954427082,30.474344889322918
270.0,0.09791056315104167,0.12652079264322916,0.1544952392578125,0.1678466796875,31.004587809244793,25.884628295898438,35.20011901855469,39.8108164469401,0.24286905924479166,0.015894571940104168,0.11952718098958333,0.095367431640625,23.218154907226562,19.589742024739582,30.35418192545573,31.348546346028645
271.0,0.06993611653645833,0.18056233723958334,0.050862630208333336,0.14559427897135416,25.003433227539062,33.229827880859375,39.9773915608724,33.16434224446615,0.18374125162760416,0.2613067626953125,0.09600321451822917,0.036875406901041664,18.680572509765625,26.983896891276043,31.887054443359375,22.553126017252605
272.0,0.179290771484375,0.1506805419921875,0.11889139811197917,0.110626220703125,25.065104166666668,40.2215321858724,35.9490712483724,20.273208618164062,0.5232493082682291,0.14559427897135416,0.07947285970052083,0.1850128173828125,25.269190470377605,31.484603881835938,26.205698649088543,15.373865763346354
273.0,0.17674763997395834,0.3693898518880208,0.09981791178385417,0.3274281819661458,35.36033630371094,36.432902018229164,26.854197184244793,30.826568603515625,0.072479248046875,0.1068115234375,0.057856241861979164,0.031153361002604168,29.128392537434895,28.1219482421875,19.2718505859375,26.973724365234375
274.0,0.054677327473958336,0.14368693033854166,0.14495849609375,0.148773193359375,33.37796529134115,29.296875,26.694615681966145,41.74105326334635,0.1316070556640625,0.133514404296875,0.006357828776041667,0.011444091796875,26.952743530273438,20.723978678385418,26.421864827473957,33.31883748372396
275.0,0.06421407063802083,0.049591064453125,0.2765655517578125,0.12969970703125,28.11749776204427,25.686264038085938,41.339874267578125,38.62889607747396,0.08392333984375,0.0171661376953125,0.050226847330729164,0.0133514404296875,20.285924275716145,23.466746012369793,32.8528086344401,28.671900431315105
276.0,0.0667572021484375,0.1964569091796875,0.047047932942708336,0.041325887044270836,23.57927958170573,39.0466054280599,38.913726806640625,27.336756388346355,0.016530354817708332,0.35858154296875,0.06421407063802083,0.0362396240234375,19.770304361979168,30.874888102213543,29.668807983398438,17.17376708984375
277.0,0.15576680501302084,0.22252400716145834,0.09663899739583333,0.1888275146484375,32.94944763183594,39.031982421875,31.48651123046875,21.132151285807293,0.12143452962239583,0.0476837158203125,0.1068115234375,0.10999043782552083,27.891159057617188,30.26262919108073,22.130966186523438,20.999908447265625
278.0,0.202178955078125,0.0031789143880208335,0.07565816243489583,0.1010894775390625,34.838358561197914,33.75879923502604,24.169921875,40.5584971110026,0.2460479736328125,0.008265177408854166,0.3611246744791667,0.019073486328125,28.54156494140625,24.199803670247395,20.135879516601562,32.83246358235677
279.0,0.021616617838541668,0.22824605305989584,0.059763590494791664,0.1506805419921875,31.462351481119793,25.55084228515625,35.85497538248698,39.99010721842448,0.034332275390625,0.22761027018229166,0.0896453857421875,0.036875406901041664,23.534138997395832,19.723892211914062,30.310312906901043,31.016031901041668
280.0,0.4170735677083333,0.16085306803385416,0.056584676106770836,0.054041544596354164,24.644851684570312,33.3550771077474,39.93924458821615,32.13946024576823,0.07120768229166667,0.164031982421875,0.07692972819010417,0.0438690185546875,18.212636311848957,27.263641357421875,31.180699666341145,21.88873291015625
281.0,0.20345052083333334,0.047047932942708336,0.014623006184895834,0.1544952392578125,25.849024454752605,39.92462158203125,35.558064778645836,20.389556884765625,0.06866455078125,0.263214111328125,0.054677327473958336,0.202178955078125,25.793711344401043,31.341552734375,25.98126729329427,15.322367350260416
282.0,0.0553131103515625,0.062306722005208336,0.14177958170572916,0.125885009765625,36.84870402018229,36.495208740234375,27.350743611653645,31.742095947265625,0.08392333984375,0.3503163655598958,0.2562204996744792,0.2581278483072917,29.51367696126302,27.86699930826823,19.662221272786457,27.428309122721355
283.0,0.10363260904947917,0.23523966471354166,0.0095367431640625,0.06357828776041667,33.528645833333336,28.88933817545573,27.008056640625,42.452494303385414,0.015894571940104168,0.1583099365234375,0.0152587890625,0.0006357828776041666,27.123769124348957,20.468393961588543,26.42059326171875,33.971150716145836
284.0,0.057856241861979164,0.13605753580729166,0.18374125162760416,0.06357828776041667,28.329849243164062,25.456746419270832,40.85350036621094,37.303924560546875,0.21870930989583334,0.14813741048177084,0.12524922688802084,0.0362396240234375,20.460128784179688,23.371378580729168,32.22084045410156,27.59552001953125
285.0,0.10808308919270833,0.0362396240234375,0.21107991536458334,0.11189778645833333,21.678924560546875,38.88130187988281,38.0713144938151,26.317596435546875,0.1010894775390625,0.12715657552083334,0.0025431315104166665,0.08328755696614583,19.65649922688802,30.359903971354168,29.417037963867188,17.05487569173177
286.0,0.06739298502604167,0.5772908528645834,0.031153361002604168,0.0438690185546875,32.60485331217448,38.25251261393229,31.340916951497395,19.350051879882812,0.14241536458333334,0.301361083984375,0.102996826171875,0.029881795247395832,28.220494588216145,29.916763305664062,21.536509195963543,20.310719807942707
287.0,0.072479248046875,0.3732045491536458,0.12079874674479167,0.054041544596354164,34.528096516927086,32.50757853190104,24.396896362304688,40.70281982421875,0.0209808349609375,0.15703837076822916,0.08837381998697917,0.029246012369791668,28.46082051595052,23.630142211914062,20.367940266927082,32.160441080729164
288.0,0.08837381998697917,0.12461344401041667,0.023523966471354168,0.1220703125,30.623118082682293,24.58635965983073,36.72981262207031,40.957132975260414,0.06548563639322917,0.010808308919270834,0.0362396240234375,0.13796488444010416,23.09735616048177,20.125706990559895,30.27025858561198,31.308492024739582
289.0,0.3077189127604167,0.16085306803385416,0.14241536458333334,0.054041544596354164,22.945404052734375,33.95207722981771,40.05114237467448,31.862894694010418,0.18628438313802084,0.11126200358072917,0.06421407063802083,0.23523966471354166,17.503738403320312,27.985254923502605,31.40703837076823,21.735509236653645
290.0,0.148773193359375,0.10744730631510417,0.003814697265625,0.171661376953125,25.421778361002605,40.379842122395836,35.19757588704427,19.67302958170573,0.15004475911458334,0.4405975341796875,0.21107991536458334,0.026067097981770832,25.81469217936198,32.01929728190104,25.606155395507812,15.624364217122396
291.0,0.07502237955729167,0.15131632486979166,0.0012715657552083333,0.10553995768229167,36.14934285481771,36.036173502604164,26.37163798014323,32.49359130859375,0.08646647135416667,0.0858306884765625,0.14368693033854166,0.008900960286458334,29.362996419270832,28.228123982747395,19.037246704101562,28.02594502766927
292.0,0.0025431315104166665,0.23206075032552084,0.11698404947916667,0.16085306803385416,32.619476318359375,29.732386271158855,26.728312174479168,43.08891296386719,0.014623006184895834,0.031153361002604168,0.2460479736328125,0.15958150227864584,26.40088399251302,20.721435546875,26.66791280110677,33.74926249186198
293.0,0.057856241861979164,0.16148885091145834,0.0743865966796875,0.020345052083333332,27.53130594889323,25.641123453776043,40.836334228515625,37.4291737874349,0.10744730631510417,0.16657511393229166,0.0457763671875,0.15131632486979166,20.144144694010418,23.607889811197918,32.245635986328125,27.659098307291668
294.0,0.24286905924479166,0.11571248372395833,0.335693359375,0.060399373372395836,22.388458251953125,39.76249694824219,38.37458292643229,25.446573893229168,0.12715657552083334,0.2733866373697917,0.12079874674479167,0.12079874674479167,19.583384195963543,30.814488728841145,29.352823893229168,16.347885131835938
295.0,0.0057220458984375,0.041961669921875,0.0400543212890625,0.2040863037109375,33.14018249511719,38.79992167154948,30.839920043945312,20.384470621744793,0.07311503092447917,0.0858306884765625,0.080108642578125,0.091552734375,27.971903483072918,30.015309651692707,21.242141723632812,20.92297871907552
296.0,0.095367431640625,0.0152587890625,0.062306722005208336,0.0782012939453125,33.99785359700521,33.092498779296875,24.21251932779948,40.94123840332031,0.1468658447265625,0.14432271321614584,0.4164377848307292,0.1049041748046875,27.884801228841145,23.636500040690105,20.034154256184895,32.4090321858724
297.0,0.064849853515625,0.10935465494791667,0.14940897623697916,0.4037221272786458,31.200408935546875,25.084177652994793,37.305196126302086,40.766398111979164,0.2873738606770833,0.15958150227864584,0.09282430013020833,0.011444091796875,23.169835408528645,20.058949788411457,30.89141845703125,31.093597412109375
298.0,0.034968058268229164,0.11189778645833333,0.2841949462890625,0.3185272216796875,22.78582255045573,33.74354044596354,39.60100809733073,30.454635620117188,0.19327799479166666,0.2002716064453125,0.0705718994140625,0.0171661376953125,16.38476053873698,28.141021728515625,31.290054321289062,20.7061767578125
299.0,0.09600321451822917,0.09918212890625,0.1468658447265625,0.1544952392578125,24.909337361653645,41.063944498697914,35.10157267252604,19.051233927408855,0.040690104166666664,0.09663899739583333,0.10172526041666667,0.029246012369791668,24.866104125976562,31.897862752278645,25.587717692057293,15.752792358398438
300.0,0.13796488444010416,0.2695719401041667,0.037511189778645836,0.054041544596354164,34.1033935546875,36.098480224609375,25.85919698079427,33.017476399739586,0.1163482666015625,0.2568562825520833,0.14559427897135416,0.2511342366536458,28.265635172526043,28.123855590820312,18.93297831217448,28.74437967936198
301.0,0.059763590494791664,0.11189778645833333,0.0514984130859375,0.010172526041666666,32.44972229003906,29.062906901041668,27.07227071126302,42.52751668294271,0.07692972819010417,0.06993611653645833,0.1697540283203125,0.11952718098958333,26.322682698567707,20.461400349934895,27.14983622233073,34.13709004720052
302.0,0.08328755696614583,0.164031982421875,0.041325887044270836,0.3229777018229167,27.883529663085938,25.690714518229168,41.1065419514974,35.95097859700521,0.110626220703125,0.091552734375,0.18437703450520834,0.0762939453125,20.252227783203125,24.146397908528645,32.41920471191406,26.987075805664062
303.0,0.059763590494791664,0.16276041666666666,0.039418538411458336,0.3496805826822917,22.087732950846355,40.09183247884115,38.3758544921875,25.318145751953125,0.026067097981770832,0.095367431640625,0.10426839192708333,0.18437703450520834,20.186106363932293,30.713399251302082,29.404958089192707,16.653060913085938
304.0,0.06548563639322917,0.3267923990885417,0.004450480143229167,0.11126200358072917,34.393310546875,39.19855753580729,30.615488688151043,21.10608418782552,0.0438690185546875,0.00762939453125,0.07692972819010417,0.3687540690104167,28.95673116048177,30.23529052734375,20.961761474609375,22.34331766764323
305.0,0.16021728515625,0.07692972819010417,0.08328755696614583,0.0247955322265625,33.5076649983724,32.857259114583336,24.561564127604168,41.6863759358724,0.13669331868489584,0.18310546875,0.0553131103515625,0.024159749348958332,27.47344970703125,23.867289225260418,21.07683817545573,32.55271911621094
306.0,0.11952718098958333,0.10617574055989583,0.14368693033854166,0.110626220703125,30.976613362630207,24.5819091796875,37.52009073893229,39.914449055989586,0.16339619954427084,0.050862630208333336,0.072479248046875,0.13097127278645834,22.713343302408855,19.858042399088543,31.488418579101562,30.621846516927082
307.0,0.10935465494791667,0.2797444661458333,0.12906392415364584,0.020345052083333332,22.943496704101562,34.159342447916664,39.70527648925781,30.94482421875,0.21425882975260416,0.012079874674479166,0.06739298502604167,0.07692972819010417,17.805099487304688,28.119405110677082,31.128565470377605,21.367390950520832
308.0,0.045140584309895836,0.08710225423177083,0.054677327473958336,0.24096171061197916,24.541219075520832,40.53179423014323,35.42264302571615,18.945058186848957,0.039418538411458336,0.11761983235677083,0.11507670084635417,0.0006357828776041666,25.632858276367188,31.888961791992188,25.422414143880207,15.745162963867188
309.0,0.025431315104166668,0.1087188720703125,0.016530354817708332,0.0553131103515625,35.479227701822914,35.191853841145836,25.948842366536457,33.03972880045573,0.0858306884765625,0.2873738606770833,0.017801920572916668,0.015894571940104168,28.731028238932293,27.238210042317707,18.92407735188802,28.879165649414062
310.0,0.156402587890625,0.11571248372395833,0.0438690185546875,0.02288818359375,32.42937723795573,27.795155843098957,26.940027872721355,42.774200439453125,0.008265177408854166,0.1354217529296875,0.1068115234375,0.13033548990885416,26.025136311848957,20.369847615559895,27.694066365559895,33.86688232421875
311.0,0.0362396240234375,0.2721150716145833,0.054041544596354164,0.029246012369791668,26.412328084309895,25.614420572916668,41.30363464355469,36.173502604166664,0.07756551106770833,0.110626220703125,0.20599365234375,0.045140584309895836,18.629074096679688,24.194081624348957,32.65062967936198,27.24774678548177
312.0,0.060399373372395836,0.027974446614583332,0.09663899739583333,0.15004475911458334,22.780100504557293,39.61372375488281,38.21500142415365,23.7884521484375,0.031789143880208336,0.059763590494791664,0.17865498860677084,0.13097127278645834,19.631703694661457,30.392964680989582,28.886795043945312,16.176859537760418
313.0,0.2384185791015625,0.10553995768229167,0.091552734375,0.020345052083333332,34.41683451334635,38.724263509114586,30.11639912923177,20.740509033203125,0.28228759765625,0.06739298502604167,0.11952718098958333,0.21680196126302084,29.855728149414062,30.24609883626302,20.650863647460938,21.691004435221355
314.0,0.0324249267578125,0.08265177408854167,0.06421407063802083,0.09409586588541667,34.8199208577474,32.94817606608073,24.15148417154948,41.98773701985677,0.1316070556640625,0.11189778645833333,0.017801920572916668,0.06357828776041667,27.806599934895832,23.883819580078125,21.189371744791668,33.22156270345052
315.0,0.052769978841145836,0.0476837158203125,0.021616617838541668,0.13224283854166666,30.20159403483073,25.37854512532552,37.33698527018229,39.48783874511719,0.022252400716145832,0.010808308919270834,0.00762939453125,0.057856241861979164,22.713343302408855,20.135243733723957,31.533559163411457,30.449549357096355
316.0,0.1735687255859375,0.1964569091796875,0.255584716796875,0.048955281575520836,22.435506184895832,34.78240966796875,39.952596028645836,30.358632405598957,0.00762939453125,0.13605753580729166,0.07947285970052083,0.0782012939453125,17.44524637858073,28.61467997233073,31.738917032877605,21.460851033528645
317.0,0.11444091796875,0.13987223307291666,0.09918212890625,0.13033548990885416,24.90234375,39.8565928141276,35.18486022949219,19.506454467773438,0.06739298502604167,0.006357828776041667,0.1983642578125,0.06421407063802083,25.864283243815105,31.651814778645832,25.246302286783855,16.027450561523438
318.0,0.2040863037109375,0.17547607421875,0.20154317220052084,0.2740224202473958,35.395304361979164,34.87523396809896,25.57818094889323,33.66279602050781,0.057220458984375,0.036875406901041664,0.02288818359375,0.029881795247395832,28.253555297851562,27.418772379557293,18.536885579427082,29.311498006184895
319.0,0.1888275146484375,0.1888275146484375,0.14495849609375,0.09473164876302083,31.74908955891927,27.834574381510418,27.298609415690105,42.16130574544271,0.008900960286458334,0.2791086832682292,0.3948211669921875,0.0031789143880208335,25.458017985026043,20.028432210286457,27.93439229329427,33.59667460123698
320.0,0.20345052083333334,0.19327799479166666,0.17674763997395834,0.12842814127604166,26.294708251953125,25.307337443033855,41.45113627115885,35.87786356608073,0.042597452799479164,0.1010894775390625,0.0858306884765625,0.0629425048828125,18.885294596354168,24.092356363932293,32.53173828125,26.679356892903645
321.0,0.017801920572916668,0.061670939127604164,0.15767415364583334,0.010172526041666666,22.835413614908855,39.86167907714844,38.066864013671875,24.423599243164062,0.043233235677083336,0.209808349609375,0.13224283854166666,0.0782012939453125,20.753224690755207,30.863444010416668,29.047648111979168,15.990575154622396
322.0,0.3236134847005208,0.060399373372395836,0.09918212890625,0.037511189778645836,33.94444783528646,38.04651896158854,31.479517618815105,21.489461263020832,0.095367431640625,0.10744730631510417,0.09473164876302083,0.21425882975260416,28.78570556640625,29.343287150065105,21.352767944335938,22.614161173502605
323.0,0.11444091796875,0.10935465494791667,0.1678466796875,0.034968058268229164,34.33545430501302,31.72747294108073,24.488449096679688,42.41180419921875,0.054677327473958336,0.022252400716145832,0.3827412923177083,0.014623006184895834,27.98906962076823,22.8271484375,21.50408426920573,32.86870320638021
324.0,0.046412150065104164,0.10236104329427083,0.12842814127604166,0.1468658447265625,30.164082845052082,24.389266967773438,37.75151570638021,40.0390625,0.3528594970703125,0.14368693033854166,0.0324249267578125,0.0476837158203125,22.34331766764323,20.07611592610677,31.316757202148438,30.607223510742188
325.0,0.027338663736979168,0.10553995768229167,0.060399373372395836,0.20154317220052084,22.237777709960938,34.4397226969401,40.28765360514323,30.679066975911457,0.09663899739583333,0.2460479736328125,0.0006357828776041666,0.10808308919270833,17.7764892578125,28.768539428710938,31.23919169108073,21.413167317708332
326.0,0.23651123046875,0.0629425048828125,0.0591278076171875,0.12715657552083334,25.985081990559895,39.22398885091146,34.90384419759115,19.91717020670573,0.010172526041666666,0.31280517578125,0.08265177408854167,0.14813741048177084,26.824951171875,30.98742167154948,25.07464090983073,16.313552856445312
327.0,0.0152587890625,0.3821055094401042,0.13287862141927084,0.059763590494791664,35.76215108235677,34.44798787434896,24.98181660970052,34.381866455078125,0.1010894775390625,0.2962748209635417,0.3363291422526042,0.050226847330729164,28.804779052734375,27.018229166666668,18.50573221842448,29.720306396484375
328.0,0.057220458984375,0.0629425048828125,0.1068115234375,0.274658203125,32.95199076334635,28.003692626953125,28.028488159179688,42.157491048177086,0.043233235677083336,0.16339619954427084,0.0476837158203125,0.010808308919270834,26.514689127604168,19.776026407877605,28.013229370117188,33.411661783854164
329.0,0.0762939453125,0.0705718994140625,0.0095367431640625,0.003814697265625,26.414871215820312,25.698343912760418,42.16702779134115,35.92491149902344,0.24859110514322916,0.18183390299479166,0.08265177408854167,0.0324249267578125,18.25396219889323,24.840672810872395,32.976786295572914,26.86754862467448
330.0,0.06548563639322917,0.3534952799479167,0.0457763671875,0.0514984130859375,22.651036580403645,39.74723815917969,38.17621866861979,22.580464680989582,0.16466776529947916,0.06930033365885417,0.033060709635416664,0.09791056315104167,20.332972208658855,30.433019002278645,29.167811075846355,15.345255533854166
331.0,0.03814697265625,0.14940897623697916,0.07184346516927083,0.07120768229166667,34.21719868977865,37.831624348958336,30.522664388020832,21.81243896484375,0.14050801595052084,0.031789143880208336,0.034968058268229164,0.23396809895833334,28.105417887369793,28.930028279622395,20.465850830078125,23.319244384765625
332.0,0.0095367431640625,0.152587890625,0.15322367350260416,0.023523966471354168,33.374786376953125,31.71984354654948,24.34221903483073,42.39781697591146,0.12652079264322916,0.040690104166666664,0.026702880859375,0.038782755533854164,27.24456787109375,22.944132486979168,21.389007568359375,32.878875732421875
333.0,0.09473164876302083,0.24096171061197916,0.202178955078125,0.026067097981770832,29.28606669108073,24.079004923502605,38.03571065266927,40.11853535970052,0.058492024739583336,0.3630320231119792,0.10999043782552083,0.016530354817708332,21.776199340820312,20.073572794596355,31.26207987467448,30.855814615885418
334.0,0.1163482666015625,0.014623006184895834,0.3185272216796875,0.07375081380208333,22.406260172526043,34.98967488606771,39.70972696940104,30.195236206054688,0.17865498860677084,0.09854634602864583,0.3490447998046875,0.14750162760416666,17.393747965494793,29.04510498046875,31.16162618001302,21.166483561197918
335.0,0.18564860026041666,0.022252400716145832,0.186920166015625,0.0476837158203125,25.370279947916668,39.78411356608073,34.63554382324219,19.62725321451823,0.012715657552083334,0.4787445068359375,0.0629425048828125,0.031789143880208336,25.903701782226562,30.591328938802082,24.728775024414062,16.51318868001302
336.0,0.0457763671875,0.20281473795572916,0.07502237955729167,0.14750162760416666,35.75897216796875,35.36542256673177,24.91442362467448,32.834370930989586,0.0457763671875,0.09091695149739583,0.19518534342447916,0.07502237955729167,28.665542602539062,27.414957682291668,18.244425455729168,29.157002766927082
337.0,0.0095367431640625,0.08900960286458333,0.016530354817708332,0.008265177408854166,32.77142842610677,27.777353922526043,27.809778849283855,40.68692525227865,0.027338663736979168,0.12652079264322916,0.035603841145833336,0.07883707682291667,26.180267333984375,19.999186197916668,27.51922607421875,32.19159444173177
338.0,0.058492024739583336,0.031789143880208336,0.12270609537760417,0.0152587890625,26.521682739257812,26.334762573242188,41.4880116780599,36.160786946614586,0.1659393310546875,0.13605753580729166,0.080108642578125,0.324249267578125,18.411000569661457,25.081634521484375,32.70085652669271,26.362101236979168
339.0,0.1392364501953125,0.2346038818359375,0.3382364908854167,0.00762939453125,22.741953531901043,41.26612345377604,38.00328572591146,23.79926045735677,0.3108978271484375,0.0031789143880208335,0.010808308919270834,0.10808308919270833,20.902633666992188,31.472524007161457,28.512954711914062,15.631993611653646
340.0,0.041961669921875,0.024159749348958332,0.0031789143880208335,0.1239776611328125,39.98692830403646,39.23161824544271,30.037562052408855,22.255579630533855,0.042597452799479164,0.00762939453125,0.1201629638671875,0.2549489339192708,32.21003214518229,30.253092447916668,20.296732584635418,23.454666137695312
341.0,0.09091695149739583,0.08265177408854167,0.110626220703125,0.00762939453125,35.53136189778646,32.00213114420573,25.984446207682293,43.16012064615885,0.064849853515625,0.06548563639322917,0.11698404947916667,0.12524922688802084,28.887430826822918,23.240407307942707,22.611618041992188,33.0810546875
342.0,0.209808349609375,0.24668375651041666,0.037511189778645836,0.09218851725260417,31.02556864420573,23.52587381998698,39.24369812011719,40.05877176920573,0.293731689453125,0.118255615234375,0.3312428792317708,0.17102559407552084,22.811253865559895,19.65777079264323,32.23482767740885,30.149459838867188
343.0,0.148773193359375,0.10426839192708333,0.004450480143229167,0.09663899739583333,23.118972778320312,34.435272216796875,40.53688049316406,29.90277608235677,0.16911824544270834,0.13033548990885416,0.23333231608072916,0.202178955078125,18.227895100911457,28.4423828125,31.620025634765625,21.001180013020832
344.0,0.18246968587239584,0.047047932942708336,0.179290771484375,0.0362396240234375,26.456832885742188,38.76431783040365,34.6838633219401,18.953959147135418,0.11571248372395833,0.13287862141927084,0.1697540283203125,0.036875406901041664,26.929855346679688,30.611673990885418,24.826685587565105,16.30083719889323
345.0,0.10617574055989583,0.14177958170572916,0.1163482666015625,0.11126200358072917,35.97068786621094,35.5828603108724,25.915781656901043,35.21092732747396,0.0457763671875,0.11126200358072917,0.16466776529947916,0.0006357828776041666,28.8543701171875,27.467091878255207,19.301096598307293,31.377156575520832
346.0,0.12143452962239583,0.125885009765625,0.07692972819010417,0.052134195963541664,32.047271728515625,27.601877848307293,28.921127319335938,42.414347330729164,0.10363260904947917,0.07947285970052083,0.061670939127604164,0.15703837076822916,25.677998860677082,20.082473754882812,28.589248657226562,33.383687337239586
347.0,0.1354217529296875,0.0743865966796875,0.12842814127604166,0.14241536458333334,26.2603759765625,26.55474344889323,41.81734720865885,37.615458170572914,0.02288818359375,0.11507670084635417,0.015894571940104168,0.14813741048177084,18.835703531901043,25.4364013671875,33.0511728922526,27.529398600260418
348.0,0.13224283854166666,0.0324249267578125,0.2498626708984375,0.2269744873046875,22.734959920247395,40.44024149576823,37.0025634765625,23.436864217122395,0.12842814127604166,0.19772847493489584,0.14050801595052084,0.06930033365885417,21.277109781901043,31.214396158854168,28.390884399414062,15.261967976888021
349.0,0.0514984130859375,0.03814697265625,0.09282430013020833,0.22379557291666666,34.20321146647135,38.5430653889974,29.458999633789062,21.996180216471355,0.010808308919270834,0.2079010009765625,0.0591278076171875,0.15767415364583334,28.409957885742188,29.970804850260418,19.830067952473957,23.943583170572918
350.0,0.07947285970052083,0.09854634602864583,0.0095367431640625,0.006993611653645833,33.672332763671875,32.30921427408854,24.954477945963543,42.4041748046875,0.048955281575520836,0.3140767415364583,0.12906392415364584,0.141143798828125,27.464548746744793,23.53223164876302,21.886189778645832,33.2495371500651
351.0,0.156402587890625,0.0362396240234375,0.13033548990885416,0.16339619954427084,29.870351155598957,24.85338846842448,39.07076517740885,40.1910146077474,0.044504801432291664,0.07184346516927083,0.012715657552083334,0.011444091796875,21.867752075195312,20.471572875976562,31.551361083984375,30.530929565429688
352.0,0.12334187825520833,0.057220458984375,0.1316070556640625,0.003814697265625,22.09790547688802,35.16197204589844,39.372762044270836,30.0445556640625,0.12143452962239583,0.3522237141927083,0.030517578125,0.1125335693359375,17.670313517252605,29.282887776692707,30.724843343098957,21.24468485514323
353.0,0.08074442545572917,0.209808349609375,0.042597452799479164,0.045140584309895836,27.036031087239582,39.38102722167969,33.86243184407552,19.275665283203125,0.03814697265625,0.3140767415364583,0.09791056315104167,0.005086263020833333,27.18671162923177,30.85645039876302,24.186452229817707,16.366958618164062
354.0,0.13669331868489584,0.217437744140625,0.013987223307291666,0.141143798828125,36.19702657063802,35.61592102050781,24.929046630859375,35.54217020670573,0.12461344401041667,0.23778279622395834,0.052134195963541664,0.0247955322265625,29.303868611653645,27.271270751953125,18.712361653645832,29.991785685221355
355.0,0.18310546875,0.07692972819010417,0.033696492513020836,0.3229777018229167,32.67669677734375,27.552286783854168,28.952280680338543,42.29418436686198,0.0667572021484375,0.13860066731770834,0.027338663736979168,0.171661376953125,25.939305623372395,20.032246907552082,28.48370869954427,33.115386962890625
356.0,0.15576680501302084,0.091552734375,0.07311503092447917,0.011444091796875,27.198155721028645,26.103973388671875,41.211446126302086,35.74816385904948,0.0858306884765625,0.1068115234375,0.052769978841145836,0.0025431315104166665,18.971761067708332,25.07464090983073,32.69259134928385,26.334126790364582
357.0,0.1316070556640625,0.2568562825520833,0.4285176595052083,0.18819173177083334,23.10498555501302,40.99591573079427,37.778218587239586,22.642771402994793,0.3643035888671875,0.018437703450520832,0.046412150065104164,0.05340576171875,21.96057637532552,31.26843770345052,28.89251708984375,15.289306640625
358.0,0.034332275390625,0.0476837158203125,0.0553131103515625,0.10172526041666667,34.332275390625,38.10564676920573,29.768625895182293,21.66430155436198,0.22188822428385416,0.08392333984375,0.030517578125,0.00762939453125,27.64892578125,29.570897420247395,20.1568603515625,24.119059244791668
359.0,0.286102294921875,0.061670939127604164,0.040690104166666664,0.2568562825520833,33.74290466308594,32.0587158203125,25.266647338867188,42.75957743326823,0.07883707682291667,0.19518534342447916,0.3801981608072917,0.2619425455729167,27.430216471354168,23.192087809244793,22.607167561848957,33.18913777669271
360.0,0.29754638671875,0.2644856770833333,0.10172526041666667,0.05340576171875,30.39105733235677,24.376551310221355,39.408365885416664,39.00782267252604,0.2638498942057292,0.1430511474609375,0.06548563639322917,0.21489461263020834,22.63959248860677,19.858678181966145,31.554539998372395,29.282251993815105
361.0,0.0171661376953125,0.16848246256510416,0.095367431640625,0.052769978841145836,23.444493611653645,35.573323567708336,39.75486755371094,27.862548828125,0.030517578125,0.02288818359375,0.030517578125,0.080108642578125,18.201192220052082,29.16399637858073,30.954360961914062,19.816080729166668
362.0,0.1373291015625,0.1964569091796875,0.156402587890625,0.1201629638671875,26.732126871744793,39.684295654296875,34.47723388671875,16.931533813476562,0.09409586588541667,0.18946329752604166,0.1659393310546875,0.0031789143880208335,26.903788248697918,31.099319458007812,24.88390604654948,15.141805013020834
363.0,0.054041544596354164,0.5232493082682291,0.21425882975260416,0.3019968668619792,36.00374857584635,34.98013814290365,25.429407755533855,35.069783528645836,0.05340576171875,0.13033548990885416,0.008265177408854166,0.08900960286458333,29.72412109375,26.377360026041668,19.011815388997395,30.535380045572918
364.0,0.13478597005208334,0.033696492513020836,0.2460479736328125,0.10999043782552083,32.794952392578125,27.56500244140625,28.852462768554688,42.21789042154948,0.22443135579427084,0.1125335693359375,0.156402587890625,0.058492024739583336,26.10333760579427,19.882837931315105,28.267542521158855,33.551534016927086
365.0,0.07502237955729167,0.031789143880208336,0.18183390299479166,0.1392364501953125,26.28771464029948,27.259190877278645,41.71880086263021,36.163330078125,0.0591278076171875,0.3115336100260417,0.10999043782552083,0.0012715657552083333,18.45232645670573,25.682449340820312,33.23682149251302,25.55529276529948
366.0,0.012715657552083334,0.024159749348958332,0.07311503092447917,0.008900960286458334,23.05157979329427,40.82298278808594,37.49529520670573,23.567835489908855,0.06103515625,0.2803802490234375,0.019073486328125,0.08265177408854167,21.48119608561198,30.954360961914062,28.532028198242188,15.214920043945312
367.0,0.14432271321614584,0.022252400716145832,0.1373291015625,0.12461344401041667,35.21092732747396,38.692474365234375,29.654820760091145,22.794723510742188,0.043233235677083336,0.2880096435546875,0.3197987874348958,0.0667572021484375,29.0374755859375,29.970169067382812,19.887288411458332,24.614334106445312
368.0,0.2759297688802083,0.15767415364583334,0.005086263020833333,0.0286102294921875,33.495585123697914,32.084147135416664,25.086720784505207,42.54722595214844,0.08392333984375,0.209808349609375,0.00762939453125,0.194549560546875,27.01886494954427,23.462931315104168,22.43487040201823,33.1427256266276
369.0,0.0019073486328125,0.0591278076171875,0.1583099365234375,0.1506805419921875,29.761632283528645,24.24176534016927,39.55650329589844,40.15922546386719,0.20726521809895834,0.3153483072916667,0.14623006184895834,0.14623006184895834,22.214253743489582,20.172119140625,31.908035278320312,30.42284647623698
370.0,0.07184346516927083,0.0591278076171875,0.15767415364583334,0.011444091796875,22.50226338704427,35.94970703125,39.65632120768229,29.755910237630207,0.110626220703125,0.07184346516927083,0.11316935221354167,0.0667572021484375,17.844518025716145,29.635111490885418,31.024932861328125,20.39337158203125
371.0,0.072479248046875,0.15385945638020834,0.13478597005208334,0.09854634602864583,27.32531229654948,39.409637451171875,34.30811564127604,20.628611246744793,0.0247955322265625,0.278472900390625,0.0820159912109375,0.08837381998697917,27.139027913411457,30.762354532877605,24.435679117838543,17.770767211914062
372.0,0.2568562825520833,0.2231597900390625,0.047047932942708336,0.087738037109375,36.0724131266276,35.11810302734375,23.749033610026043,36.79784138997396,0.056584676106770836,0.1926422119140625,0.0476837158203125,0.21044413248697916,29.403050740559895,26.538848876953125,18.52734883626302,31.27606709798177
373.0,0.026067097981770832,0.044504801432291664,0.3197987874348958,0.14177958170572916,32.208760579427086,27.39397684733073,29.371261596679688,42.59936014811198,0.00762939453125,0.3350575764973958,0.0782012939453125,0.08392333984375,25.491714477539062,19.838968912760418,28.727213541666668,33.13446044921875
374.0,0.23333231608072916,0.13287862141927084,0.039418538411458336,0.044504801432291664,26.22667948404948,26.450475056966145,41.2756601969401,36.099751790364586,0.006357828776041667,0.232696533203125,0.23142496744791666,0.091552734375,18.485387166341145,25.583902994791668,32.170613606770836,25.589625040690105
375.0,0.11316935221354167,0.4405975341796875,0.09600321451822917,0.058492024739583336,22.68664042154948,39.81590270996094,36.68785095214844,21.494547526041668,0.0006357828776041666,0.12652079264322916,0.11444091796875,0.021616617838541668,20.950953165690105,30.376434326171875,27.77862548828125,14.336268107096354
376.0,0.3643035888671875,0.20853678385416666,0.029246012369791668,0.06739298502604167,35.10220845540365,38.3758544921875,30.485788981119793,23.80688985188802,0.091552734375,0.10236104329427083,0.006357828776041667,0.12906392415364584,29.12457784016927,29.542922973632812,20.372390747070312,25.365193684895832
377.0,0.07947285970052083,0.141143798828125,0.07120768229166667,0.052134195963541664,33.84272257486979,31.452178955078125,24.958292643229168,42.140960693359375,0.003814697265625,0.4870096842447917,0.23015340169270834,0.07311503092447917,27.266820271809895,23.097991943359375,22.958755493164062,32.62138366699219
378.0,0.2625783284505208,0.2536773681640625,0.2593994140625,0.08138020833333333,29.841105143229168,24.948755900065105,40.257771809895836,39.843241373697914,0.2593994140625,0.23333231608072916,0.21107991536458334,0.1888275146484375,21.890004475911457,20.751317342122395,32.16107686360677,30.038197835286457
379.0,0.11316935221354167,0.1468658447265625,0.042597452799479164,0.10426839192708333,22.509256998697918,36.4844004313151,39.66458638509115,29.743194580078125,0.23587544759114584,0.24159749348958334,0.050862630208333336,0.08265177408854167,18.22217305501302,29.874801635742188,30.822118123372395,20.538965861002605
380.0,0.054041544596354164,0.125885009765625,0.010808308919270834,0.09600321451822917,27.084986368815105,39.76567586263021,34.2559814453125,19.387563069661457,0.3445943196614583,0.2288818359375,0.11889139811197917,0.2079010009765625,27.190526326497395,30.999501546223957,24.60479736328125,16.878763834635418
381.0,0.2625783284505208,0.2079010009765625,0.11952718098958333,0.1010894775390625,36.49202982584635,35.08694966634115,24.70842997233073,36.4844004313151,0.072479248046875,0.062306722005208336,0.12969970703125,0.4253387451171875,29.36108907063802,26.300430297851562,19.149144490559895,31.403223673502605
382.0,0.018437703450520832,0.400543212890625,0.047047932942708336,0.07883707682291667,32.26025899251302,26.77154541015625,29.276529947916668,42.32215881347656,0.07502237955729167,0.3509521484375,0.1068115234375,0.0286102294921875,25.483449300130207,19.624710083007812,28.518040974934895,32.862345377604164
383.0,0.043233235677083336,0.19963582356770834,0.4056294759114583,0.13224283854166666,26.276270548502605,26.934305826822918,41.34051005045573,36.29112243652344,0.20917256673177084,0.0006357828776041666,0.06866455078125,0.09854634602864583,18.515268961588543,25.739669799804688,32.544453938802086,25.604883829752605
384.0,0.0171661376953125,0.3255208333333333,0.15767415364583334,0.0629425048828125,23.78082275390625,40.5890146891276,36.82136535644531,22.706349690755207,0.12461344401041667,0.19772847493489584,0.11380513509114583,0.20726521809895834,21.8658447265625,30.960718790690105,27.967453002929688,15.949885050455729
385.0,0.045140584309895836,0.2644856770833333,0.09600321451822917,0.09663899739583333,35.125732421875,38.12408447265625,30.569712320963543,22.378921508789062,0.1811981201171875,0.07692972819010417,0.3236134847005208,0.08265177408854167,28.463999430338543,29.471715291341145,20.295461018880207,24.237950642903645
386.0,0.09409586588541667,0.14559427897135416,0.0171661376953125,0.12524922688802084,33.396402994791664,30.873616536458332,25.388717651367188,42.39463806152344,0.10935465494791667,0.10744730631510417,0.047047932942708336,0.00762939453125,27.298609415690105,22.054672241210938,23.024876912434895,32.81084696451823
