Time,S1_D1_Red,S2_D2_Red,S3_D3_Red,S4_D4_Red,S5_D5_Red,S6_D6_Red,S7_D7_Red,S8_D8_Red,S1_D1_Ir,S2_D2_Ir,S3_D3_Ir,S4_D4_Ir,S5_D5_Ir,S6_D6_Ir,S7_D7_Ir,S8_D8_Ir
0.0,0.0006357828776041666,0.0006357828776041666,3.559112548828125,6.8734486897786455,0.11189778645833333,634.8183949788412,798.4269460042318,422.5476582845052,268.48729451497394,0.0006357828776041666,0.0006357828776041666,3.509521484375,6.8899790445963545,0.1010894775390625,415.3429667154948,529.9364725748698
1.0,142.09302266438803,7.5880686442057295,3.5451253255208335,6.7679087320963545,0.1125335693359375,226.8225351969401,309.0826670328776,156.12347920735678,92.7111307779948,87.08381652832031,7.3362986246744795,3.6875406901041665,6.7373911539713545,0.10236104329427083,150.9679158528646,199.3401845296224
2.0,60.57929992675781,7.467905680338542,3.5845438639322915,6.856282552083333,0.09473164876302083,86.70616149902344,114.26862080891927,58.85124206542969,44.72668965657552,46.09807332356771,7.6516469319661455,3.5044352213541665,6.969451904296875,0.10617574055989583,58.38712056477865,68.56854756673177
3.0,39.97166951497396,7.7114105224609375,3.7097930908203125,6.710052490234375,0.07375081380208333,35.76342264811198,45.87618509928385,43.16902160644531,35.77105204264323,34.30366516113281,7.3655446370442705,3.6678314208984375,6.7628224690755205,0.09854634602864583,20.133336385091145,38.037618001302086
4.0,29.469807942708332,7.550557454427083,3.569920857747396,6.9103240966796875,0.0820159912109375,21.058400472005207,38.44642639160156,32.00721740722656,19.547144571940105,17.575581868489582,7.657368977864583,3.5540262858072915,6.930033365885417,0.087738037109375,21.071116129557293,33.060709635416664
5.0,13.118743896484375,7.5969696044921875,3.60870361328125,6.860097249348958,0.07947285970052083,25.373458862304688,55.536905924479164,18.515904744466145,8.401234944661459,6.96563720703125,7.354736328125,3.6977132161458335,6.744384765625,0.0591278076171875,5.4594675699869795,25.13567606608073
6.0,13.326644897460938,7.413228352864583,3.646214803059896,6.8238576253255205,0.09028116861979167,25.023142496744793,23.145039876302082,14.88494873046875,18.19292704264323,17.28502909342448,7.6440175374348955,3.508885701497396,6.9662729899088545,0.087738037109375,21.405537923177082,12.062708536783854
7.0,23.087819417317707,7.6300303141276045,3.5336812337239585,6.87408447265625,0.062306722005208336,20.711898803710938,16.272862752278645,26.821136474609375,27.40160624186198,23.155848185221355,7.4087778727213545,3.6493937174479165,6.6992441813151045,0.09282430013020833,11.797587076822916,15.736262003580729
8.0,24.290720621744793,7.3108673095703125,3.6226908365885415,6.739298502604167,0.095367431640625,14.3890380859375,25.24121602376302,30.291239420572918,23.717244466145832,18.84015401204427,7.5836181640625,3.5495758056640625,6.9344838460286455,0.064849853515625,11.63482666015625,26.023228963216145
9.0,16.521453857421875,7.631937662760417,3.505706787109375,6.9815317789713545,0.1087188720703125,19.61199442545573,31.046549479166668,23.456573486328125,11.2762451171875,7.035573323567708,7.4659983317057295,3.5870869954427085,6.781260172526042,0.09091695149739583,23.418426513671875,26.59161885579427
10.0,8.454004923502604,7.3909759521484375,3.70025634765625,6.805419921875,0.08519490559895833,26.887893676757812,27.59869893391927,12.479146321614584,10.333379109700521,8.862813313802084,7.450103759765625,3.6334991455078125,6.8658192952473955,0.09981791178385417,25.409698486328125,17.31427510579427
11.0,17.569224039713543,7.615407307942708,3.5349527994791665,6.936391194661458,0.08265177408854167,24.59716796875,17.714182535807293,19.332249959309895,23.98363749186198,21.148045857747395,7.6516469319661455,3.589630126953125,6.890614827473958,0.08138020833333333,17.8375244140625,10.465621948242188
12.0,24.383544921875,7.4545542399088545,3.6602020263671875,6.739298502604167,0.10617574055989583,17.18902587890625,19.060770670572918,29.801050821940105,27.170817057291668,21.776199340820312,7.382710774739583,3.651301066080729,6.7907969156901045,0.08138020833333333,9.244283040364584,21.68591817220052
13.0,21.736780802408855,7.4838002522786455,3.5648345947265625,6.917317708333333,0.052134195963541664,14.513015747070312,29.42975362141927,27.852376302083332,18.150965372721355,13.071060180664062,7.7037811279296875,3.527959187825521,6.9103240966796875,0.10553995768229167,16.859690348307293,28.207778930664062
14.0,11.379241943359375,7.5664520263671875,3.5845438639322915,6.818135579427083,0.0743865966796875,25.911966959635418,30.643463134765625,18.521626790364582,29.454549153645832,5.582173665364583,7.3935190836588545,3.7320454915364585,6.7475636800130205,0.10935465494791667,27.077356974283855,23.258209228515625
15.0,10.519663492838541,7.427215576171875,3.6678314208984375,6.608327229817708,0.080108642578125,27.09643046061198,21.439870198567707,10.023117065429688,14.881769816080729,15.321095784505209,8.527755737304688,3.482182820638021,7.584889729817708,0.08519490559895833,22.729237874348957,10.80322265625
16.0,22.995630900065105,7.666269938151042,3.5152435302734375,6.8467458089192705,0.049591064453125,22.291819254557293,15.104293823242188,24.317423502604168,26.283899943033855,23.473103841145832,7.4227650960286455,3.665288289388021,6.7094167073567705,0.08519490559895833,12.938181559244791,14.464060465494791
17.0,24.587631225585938,7.3782602945963545,3.6792755126953125,6.7768096923828125,0.10236104329427083,14.16778564453125,23.818333943684895,29.564539591471355,23.367563883463543,19.283294677734375,7.542928059895833,3.558476765950521,6.910959879557292,0.11507670084635417,11.0321044921875,25.26410420735677
18.0,16.843159993489582,7.6783498128255205,3.50189208984375,6.9471995035807295,0.11698404947916667,18.882115681966145,30.690511067708332,23.283640543619793,11.320749918619791,7.3515574137369795,7.5105031331380205,3.612518310546875,6.7996978759765625,0.0896453857421875,22.600173950195312,26.280721028645832
19.0,8.520762125651041,7.3680877685546875,3.6900838216145835,6.744384765625,0.1163482666015625,26.363372802734375,27.037302652994793,12.261072794596354,9.675979614257812,9.037017822265625,7.4545542399088545,4.053751627604167,6.8442026774088545,0.09091695149739583,25.173187255859375,17.299652099609375
20.0,17.018636067708332,7.601420084635417,3.529230753580729,6.9427490234375,0.08837381998697917,54.02374267578125,18.254597981770832,18.75750223795573,23.859024047851562,20.601908365885418,7.645924886067708,3.5718282063802085,6.8696339925130205,0.09028116861979167,28.40423583984375,10.41412353515625
21.0,24.721145629882812,7.4876149495442705,3.662109375,6.7297617594401045,0.07311503092447917,22.032419840494793,18.129984537760418,29.111226399739582,26.98961893717448,22.388458251953125,7.368723551432292,3.6258697509765625,6.7831675211588545,0.0762939453125,11.663436889648438,20.9503173828125
22.0,21.918614705403645,7.49969482421875,3.5959879557291665,6.8620045979817705,0.0705718994140625,15.610376993815104,17.664591471354168,27.623494466145832,17.745335896809895,14.029184977213541,7.65228271484375,3.5069783528645835,6.964365641276042,0.09091695149739583,16.656239827473957,21.368662516276043
23.0,11.673609415690104,7.607777913411458,3.5527547200520835,6.863911946614583,0.08265177408854167,33.86751810709635,28.24846903483073,17.443339029947918,7.19451904296875,5.1422119140625,7.3591868082682295,3.6722819010416665,6.7717234293619795,0.06930033365885417,30.668894449869793,21.881103515625
24.0,11.499404907226562,7.3846181233723955,3.6684672037760415,6.8391164143880205,0.10045369466145833,29.11059061686198,21.841049194335938,12.634913126627604,15.650431315104166,15.626907348632812,7.6325734456380205,3.53240966796875,7.027943929036458,0.06866455078125,24.498621622721355,11.458079020182291
25.0,22.516886393229168,7.6948801676432295,3.4802754720052085,6.9548288981119795,0.06866455078125,21.93768819173177,14.635721842447916,25.108973185221355,26.568094889322918,23.040135701497395,7.4481964111328125,3.66973876953125,6.6827138264973955,0.09791056315104167,12.811024983723959,13.780593872070312
26.0,24.959564208984375,7.378896077473958,3.726959228515625,6.7310333251953125,0.0782012939453125,14.093399047851562,23.478190104166668,29.951095581054688,24.18963114420573,19.460678100585938,7.4672698974609375,3.5463968912760415,6.894429524739583,0.08519490559895833,10.348002115885416,25.194168090820312
27.0,17.267862955729168,7.6948801676432295,3.4847259521484375,6.9306691487630205,0.08265177408854167,18.205642700195312,30.440648396809895,23.154576619466145,11.515299479166666,7.8347524007161455,7.643381754557292,3.623326619466146,6.777445475260417,0.0743865966796875,21.76221211751302,27.030309041341145
28.0,8.41522216796875,7.4164072672526045,3.6977132161458335,6.75201416015625,0.08837381998697917,25.522232055664062,27.847925821940105,12.451807657877604,8.580525716145834,8.053461710611979,7.441202799479167,3.998438517252604,6.787618001302083,0.09600321451822917,24.667739868164062,18.236796061197918
29.0,16.031265258789062,7.558186848958333,3.5146077473958335,6.9433848063151045,0.08392333984375,26.657740275065105,17.590840657552082,17.695109049479168,23.187001546223957,19.978841145833332,7.6351165771484375,3.5495758056640625,6.947835286458333,0.06421407063802083,19.464492797851562,9.923934936523438
30.0,25.15856424967448,7.495880126953125,3.5839080810546875,6.722768147786458,0.06930033365885417,19.472122192382812,17.222086588541668,28.523763020833332,27.214686075846355,22.703170776367188,7.375081380208333,3.6900838216145835,6.7920684814453125,0.10744730631510417,9.896596272786459,19.84723409016927
31.0,21.90717061360677,7.495880126953125,3.597895304361979,6.93511962890625,0.0934600830078125,14.311472574869791,28.542836507161457,27.98144022623698,18.815358479817707,14.079411824544271,7.6491038004557295,3.498077392578125,6.964365641276042,0.11444091796875,15.565236409505209,27.235031127929688
32.0,12.411117553710938,7.62939453125,3.5858154296875,6.857554117838542,0.0762939453125,21.77747090657552,30.77252705891927,19.220987955729168,7.6669057210286455,5.697886149088542,7.403055826822917,3.6799112955729165,6.7157745361328125,0.06930033365885417,23.88318379720052,23.991902669270832
33.0,10.222752888997396,7.4240366617838545,3.655115763346354,7.472991943359375,0.06930033365885417,25.353749593098957,22.696812947591145,11.536280314127604,14.5263671875,14.343897501627604,7.579803466796875,3.9577484130859375,6.9471995035807295,0.055948893229166664,22.394816080729168,12.091954549153646
34.0,22.093454996744793,7.670084635416667,3.498713175455729,6.916046142578125,0.102996826171875,21.68591817220052,15.284856160481771,23.896535237630207,25.606155395507812,22.94603983561198,7.504781087239583,3.620783487955729,6.684621175130208,0.10172526041666667,13.355255126953125,13.292948404947916
35.0,24.523417154947918,7.354736328125,3.6716461181640625,6.7462921142578125,0.0762939453125,14.032999674479166,22.338231404622395,29.473622639973957,24.354934692382812,19.96167500813802,7.5028737386067705,3.589630126953125,6.93511962890625,0.09663899739583333,9.429931640625,24.709065755208332
36.0,17.868677775065105,7.638295491536458,3.51715087890625,6.9637298583984375,0.07692972819010417,16.881942749023438,30.20477294921875,23.966471354166668,11.824289957682291,8.256912231445312,7.5829823811848955,3.5807291666666665,6.779988606770833,0.06802876790364583,21.832784016927082,26.517232259114582
37.0,8.148829142252604,7.4036916097005205,3.6258697509765625,7.3019663492838545,0.080108642578125,25.417327880859375,28.142929077148438,13.192494710286459,8.284886678059896,7.3566436767578125,7.464090983072917,3.627777099609375,6.793975830078125,0.08265177408854167,24.84448750813802,18.45232645670573
38.0,15.343983968098959,7.5308481852213545,3.505706787109375,6.918589274088542,0.07184346516927083,24.55584208170573,17.930348714192707,17.087936401367188,23.02869160970052,19.845962524414062,7.6491038004557295,3.581364949544271,6.89697265625,0.09663899739583333,18.933614095052082,10.0250244140625
39.0,24.450937906901043,7.5308481852213545,3.6252339680989585,6.7628224690755205,0.0858306884765625,18.507639567057293,16.504923502604168,28.23321024576823,27.496337890625,22.167205810546875,7.353464762369792,3.636042277018229,6.6986083984375,0.0743865966796875,9.192148844401041,18.86304219563802
40.0,22.234598795572918,7.429758707682292,3.604253133138021,6.8543752034505205,0.11571248372395833,13.556798299153646,28.26690673828125,28.585433959960938,19.208908081054688,15.055338541666666,7.6707204182942705,3.501256306966146,6.9344838460286455,0.0934600830078125,14.354070027669271,27.141571044921875
41.0,12.442270914713541,7.6707204182942705,3.571192423502604,6.8518320719401045,0.09981791178385417,21.195729573567707,30.11639912923177,18.845876057942707,7.352193196614583,5.185445149739583,7.4075063069661455,3.609339396158854,6.7577362060546875,0.09282430013020833,23.611068725585938,23.403167724609375
42.0,10.053634643554688,7.3884328206380205,3.658930460611979,6.830851236979167,0.08519490559895833,26.038487752278645,22.659937540690105,11.846542358398438,13.783772786458334,13.415018717447916,7.5969696044921875,3.5463968912760415,6.9357554117838545,0.06103515625,23.240407307942707,12.380599975585938
43.0,21.450042724609375,7.653554280598958,3.468195597330729,6.914774576822917,0.06612141927083333,22.229512532552082,13.933817545572916,23.069381713867188,25.755564371744793,22.774378458658855,7.516225179036458,3.636042277018229,6.7475636800130205,0.12270609537760417,13.275782267252604,12.059529622395834
44.0,24.87627665201823,7.4265797932942705,3.6716461181640625,6.7017873128255205,0.110626220703125,14.494578043619791,21.30572001139323,29.665629069010418,25.061925252278645,20.130157470703125,7.4469248453776045,3.5578409830729165,6.855010986328125,0.0762939453125,9.300867716471354,24.386088053385418
45.0,18.265406290690105,7.610321044921875,3.533045450846354,6.918589274088542,0.0858306884765625,16.586939493815105,29.912948608398438,24.54694112141927,13.676325480143229,9.150822957356771,7.6071421305338545,3.5502115885416665,6.8225860595703125,0.06357828776041667,20.708719889322918,27.089436848958332
46.0,8.823394775390625,7.472991943359375,3.6633809407552085,6.726582845052083,0.1010894775390625,25.22722880045573,28.296152750651043,13.013839721679688,7.378896077473958,7.10296630859375,7.378896077473958,3.7066141764322915,6.7869822184244795,0.0743865966796875,24.900436401367188,19.13897196451823
47.0,14.645894368489584,7.5384775797526045,3.5616556803385415,6.9065093994140625,0.0972747802734375,25.137583414713543,18.827438354492188,16.412099202473957,21.2554931640625,19.249598185221355,7.685343424479167,3.498713175455729,6.8861643473307295,0.064849853515625,19.632339477539062,9.946823120117188
48.0,23.810704549153645,7.610321044921875,3.56292724609375,6.810506184895833,0.07883707682291667,19.031524658203125,15.867869059244791,27.88988749186198,26.763280232747395,22.679646809895832,7.38525390625,3.6869049072265625,6.7399342854817705,0.091552734375,9.16290283203125,17.564773559570312
49.0,22.74004618326823,7.3998769124348955,3.6176045735677085,6.9103240966796875,0.09282430013020833,13.046900431315104,27.350743611653645,28.897603352864582,20.338694254557293,15.476226806640625,7.640838623046875,3.5031636555989585,6.966908772786458,0.10744730631510417,13.764063517252604,27.02013651529948
50.0,12.664794921875,7.681528727213542,3.5006205240885415,6.8454742431640625,0.09282430013020833,20.517985026041668,30.153910319010418,20.277023315429688,7.6376597086588545,5.2916208902994795,7.403055826822917,3.651301066080729,6.6750844319661455,0.06993611653645833,22.962570190429688,24.4293212890625
51.0,9.014765421549479,7.3655446370442705,3.665288289388021,6.7386627197265625,0.06421407063802083,25.66973368326823,23.50298563639323,11.561075846354166,12.915293375651041,12.383778889973959,7.568359375,3.5413106282552085,6.9230397542317705,0.080108642578125,23.272196451822918,13.270696004231771
52.0,20.364125569661457,7.729848225911458,3.4770965576171875,6.932576497395833,0.07756551106770833,22.891998291015625,14.527002970377604,21.80163065592448,24.805068969726562,21.993001302083332,7.523854573567708,3.601710001627604,6.7291259765625,0.0858306884765625,14.809926350911459,11.545817057291666
53.0,24.55457051595052,7.371266682942708,3.6449432373046875,6.7284901936848955,0.0858306884765625,15.382766723632812,19.99982198079427,29.451370239257812,25.138219197591145,20.004908243815105,7.4939727783203125,3.5858154296875,6.8442026774088545,0.0858306884765625,9.036382039388021,23.084640502929688
54.0,18.241246541341145,7.57598876953125,3.536860148111979,6.936391194661458,0.07184346516927083,16.82599385579427,29.371261596679688,25.798797607421875,14.586130777994791,9.183883666992188,7.661183675130208,3.5502115885416665,6.867726643880208,0.09663899739583333,19.53442891438802,26.569366455078125
55.0,8.188883463541666,7.4303944905598955,3.6061604817708335,6.734212239583333,0.10236104329427083,24.261474609375,27.748743693033855,13.945897420247396,7.008870442708333,6.748199462890625,7.340749104817708,3.6773681640625,6.8035125732421875,0.10808308919270833,24.629592895507812,19.538243611653645
56.0,13.222376505533854,7.504781087239583,3.5794576009114585,7.0158640543619795,0.0743865966796875,25.59216817220052,18.50446065266927,15.664418538411459,20.291646321614582,18.369038899739582,7.6580047607421875,3.498713175455729,6.8861643473307295,0.060399373372395836,20.021438598632812,9.389241536458334
57.0,23.86474609375,7.619222005208333,3.5648345947265625,6.855010986328125,0.0896453857421875,0.10999043782552083,16.882578531901043,27.347564697265625,26.872634887695312,22.88055419921875,7.359822591145833,3.6799112955729165,6.7106882731119795,0.0858306884765625,25.368372599283855,18.00982157389323
58.0,23.408253987630207,7.4176788330078125,3.643671671549479,6.8060557047526045,0.07375081380208333,19.788742065429688,27.322133382161457,28.717041015625,21.066029866536457,16.459147135416668,7.6452891031901045,3.509521484375,6.988525390625,0.0858306884765625,16.69756571451823,26.780446370442707
59.0,14.1754150390625,7.704416910807292,3.5222371419270835,6.944020589192708,0.12524922688802084,21.231969197591145,30.789693196614582,20.68010965983073,8.513768513997396,5.7417551676432295,7.4202219645182295,3.642400105794271,6.670633951822917,0.10363260904947917,24.428049723307293,24.129867553710938
60.0,10.213851928710938,7.283528645833333,3.651301066080729,6.732940673828125,0.07375081380208333,25.89734395345052,23.638407389322918,10.288874308268229,11.529922485351562,12.641270955403646,7.5308481852213545,3.547032674153646,6.8721771240234375,0.058492024739583336,23.501078287760418,13.398488362630209
61.0,20.08501688639323,7.746378580729167,3.508885701497396,6.918589274088542,0.11571248372395833,23.004531860351562,14.689763387044271,19.22289530436198,24.804433186848957,22.12842305501302,7.611592610677083,3.5502115885416665,6.760915120442708,0.0820159912109375,15.787124633789062,11.116663614908854
62.0,23.794809977213543,7.3699951171875,3.636042277018229,6.6928863525390625,0.11189778645833333,15.097300211588541,19.545873006184895,30.576070149739582,26.29852294921875,20.67248026529948,7.4036916097005205,3.5724639892578125,6.755828857421875,0.09854634602864583,8.286158243815104,22.691090901692707
63.0,19.822438557942707,7.568359375,3.5400390625,7.5893402099609375,0.07120768229166667,15.511830647786459,28.53838602701823,25.044759114583332,14.368693033854166,10.517120361328125,7.649739583333333,3.5419464111328125,6.8747202555338545,0.09028116861979167,18.868128458658855,26.77472432454427
64.0,8.9111328125,7.531483968098958,3.6417643229166665,6.7742665608723955,0.08138020833333333,23.965199788411457,28.45446268717448,15.458424886067709,6.9065093994140625,6.1728159586588545,7.3769887288411455,3.655115763346354,6.781260172526042,0.08837381998697917,23.876190185546875,20.13715108235677
65.0,12.823740641276041,7.414499918619792,3.611882527669271,6.8988800048828125,0.1087188720703125,25.285085042317707,18.526713053385418,14.933268229166666,19.74805196126302,17.922719319661457,7.6770782470703125,3.528594970703125,6.9357554117838545,0.07184346516927083,20.745595296223957,9.548823038736979
66.0,23.382186889648438,7.6872507731119795,3.5489400227864585,6.8213144938151045,0.08519490559895833,19.759496053059895,14.420191446940104,26.430130004882812,26.501973470052082,22.914886474609375,7.3172251383463545,3.6602020263671875,6.7157745361328125,0.0782012939453125,9.77325439453125,15.745162963867188
67.0,23.622512817382812,7.3795318603515625,3.65447998046875,6.8009694417317705,0.06739298502604167,13.010660807291666,25.78290303548177,28.920491536458332,21.546045939127605,16.710281372070312,7.5906117757161455,3.517786661783854,6.93511962890625,0.061670939127604164,12.318929036458334,25.7110595703125
68.0,14.200210571289062,7.6936086018880205,3.540674845377604,6.8937937418619795,0.09663899739583333,19.02325948079427,29.584884643554688,21.68591817220052,8.925120035807291,5.486806233723958,7.455190022786458,3.635406494140625,6.697336832682292,0.09473164876302083,22.81951904296875,24.768829345703125
69.0,8.437474568684896,7.3820749918619795,3.681182861328125,6.7551930745442705,0.10617574055989583,25.41351318359375,24.680455525716145,11.100133260091146,10.821660359700521,10.662078857421875,7.4888865152994795,3.566741943359375,6.928761800130208,0.07756551106770833,23.688634236653645,14.581680297851562
70.0,19.567489624023438,7.654825846354167,3.5082499186197915,6.9561004638671875,0.07756551106770833,22.818247477213543,15.721003214518229,19.167582194010418,23.82342020670573,21.83850606282552,7.5753529866536455,3.5692850748697915,6.8213144938151045,0.0972747802734375,15.588124593098959,10.867436726888021
71.0,24.37591552734375,7.406870524088542,3.6678314208984375,6.6852569580078125,0.09791056315104167,14.665603637695312,19.086201985677082,28.91858418782552,25.746663411458332,21.67956034342448,7.3541005452473955,3.635406494140625,6.852467854817708,0.06421407063802083,7.807413736979167,22.319793701171875
72.0,19.6533203125,7.6109568277994795,3.531773885091146,6.9281260172526045,0.09981791178385417,14.83154296875,28.612772623697918,26.208241780598957,16.080220540364582,10.919570922851562,7.6300303141276045,3.575007120768229,6.886800130208333,0.0667572021484375,17.836252848307293,26.721954345703125
73.0,9.259541829427084,7.5537363688151045,3.6252339680989585,6.7246754964192705,0.08900960286458333,23.488362630208332,28.702418009440105,15.010833740234375,6.535847981770833,5.6158701578776045,7.312774658203125,3.669102986653646,6.744384765625,0.10617574055989583,24.262110392252605,21.215438842773438
74.0,12.519200642903646,7.429758707682292,3.5985310872395835,6.8543752034505205,0.09218851725260417,25.40143330891927,19.692738850911457,13.899485270182291,17.966588338216145,17.241795857747395,7.673899332682292,3.510157267252604,6.909688313802083,0.07502237955729167,20.82506815592448,9.449005126953125
75.0,22.84558614095052,7.625579833984375,3.529230753580729,6.8442026774088545,0.091552734375,20.058949788411457,13.994216918945312,26.368459065755207,26.261647542317707,22.935867309570312,7.34710693359375,3.6633809407552085,6.7399342854817705,0.11571248372395833,10.9100341796875,15.436172485351562
76.0,23.614883422851562,7.376352945963542,3.650029500325521,6.760915120442708,0.09218851725260417,13.03863525390625,24.972279866536457,29.036204020182293,22.288004557291668,17.532984415690105,7.5550079345703125,3.521601359049479,6.9929758707682295,0.07947285970052083,11.094411214192709,25.55084228515625
77.0,15.216191609700521,7.631937662760417,3.5158793131510415,6.9408416748046875,0.0762939453125,18.28447977701823,28.905868530273438,22.382100423177082,9.945551554361979,5.8104197184244795,7.521311442057292,3.6112467447916665,6.724039713541667,0.0762939453125,22.084554036458332,25.269826253255207
78.0,7.857004801432292,7.3719024658203125,3.665288289388021,6.7501068115234375,0.0820159912109375,25.339762369791668,25.03522237141927,13.217290242513021,10.950088500976562,10.051727294921875,7.508595784505208,3.7555694580078125,6.8594614664713545,0.0896453857421875,24.022420247395832,14.985402425130209
79.0,19.570668538411457,7.624308268229167,3.491083780924479,6.96563720703125,0.08519490559895833,23.149490356445312,14.137903849283854,18.90881856282552,23.72423807779948,21.783828735351562,7.6554616292317705,3.543853759765625,6.937662760416667,0.061670939127604164,16.330718994140625,8.427302042643229
80.0,24.480183919270832,7.45391845703125,3.601710001627604,6.726582845052083,0.08646647135416667,16.025543212890625,17.361958821614582,28.78252665201823,26.30615234375,21.987279256184895,7.357279459635417,3.6481221516927085,6.755828857421875,0.08646647135416667,8.057912190755209,20.654678344726562
81.0,20.909627278645832,7.5295766194661455,3.5235087076822915,6.9599151611328125,0.10236104329427083,14.448165893554688,27.853647867838543,26.961008707682293,17.261505126953125,12.267430623372396,7.633209228515625,3.502527872721354,6.9230397542317705,0.061670939127604164,16.930898030598957,26.065826416015625
82.0,9.681065877278646,7.5092315673828125,3.5692850748697915,6.7780812581380205,0.06357828776041667,23.026148478190105,28.850555419921875,15.769322713216146,6.4322153727213545,4.5159657796223955,7.306416829427083,3.6519368489583335,6.746927897135417,0.07565816243489583,24.839401245117188,21.58800760904948
83.0,11.262893676757812,7.386525472005208,3.6182403564453125,6.8721771240234375,0.09028116861979167,24.926503499348957,21.242141723632812,12.975056966145834,16.797383626302082,15.930811564127604,7.596333821614583,3.5196940104166665,6.988525390625,0.08900960286458333,20.963033040364582,10.543187459309896
84.0,22.493362426757812,7.588704427083333,3.5730997721354165,6.880442301432292,0.11761983235677083,20.766576131184895,14.44244384765625,25.780359903971355,25.587717692057293,22.576649983723957,7.3604583740234375,3.630956013997396,6.665547688802083,0.07692972819010417,12.051900227864584,14.000574747721354
85.0,23.732503255208332,7.3617299397786455,3.680547078450521,7.389068603515625,0.08265177408854167,13.515472412109375,23.714701334635418,29.764175415039062,22.816975911458332,18.110911051432293,7.602691650390625,3.550847371419271,6.9433848063151045,0.06866455078125,10.853449503580729,24.947484334309895
86.0,16.020456949869793,7.6605478922526045,3.4847259521484375,6.9408416748046875,0.10363260904947917,18.096288045247395,29.455184936523438,22.823333740234375,10.983784993489584,6.251017252604167,7.517496744791667,3.604888916015625,6.749471028645833,0.08900960286458333,21.823883056640625,25.421142578125
87.0,7.9301198323567705,7.345835367838542,3.6684672037760415,6.6814422607421875,0.07120768229166667,24.533589680989582,25.432586669921875,11.993408203125,9.392420450846354,8.671442667643229,7.4723561604817705,3.592809041341146,6.867726643880208,0.08392333984375,23.774464925130207,16.231536865234375
88.0,17.659505208333332,7.5918833414713545,3.513971964518229,6.945292154947917,0.12524922688802084,23.38854471842448,15.951792399088541,19.227981567382812,23.633321126302082,21.038055419921875,7.5918833414713545,3.5311381022135415,6.8607330322265625,0.06357828776041667,17.019907633463543,9.355545043945312
89.0,24.003346761067707,7.467905680338542,3.6417643229166665,6.732940673828125,0.08710225423177083,16.62445068359375,15.858332316080729,28.626759847005207,26.620229085286457,21.879196166992188,7.4075063069661455,3.6671956380208335,6.7704518636067705,0.0972747802734375,8.508046468098959,19.415537516276043
90.0,20.987192789713543,7.45391845703125,3.5578409830729165,6.9243113199869795,0.09409586588541667,13.347625732421875,27.208328247070312,27.071634928385418,17.114639282226562,12.584050496419271,7.6516469319661455,3.4955342610677085,6.93511962890625,0.06930033365885417,15.225728352864584,26.281992594401043
91.0,10.462443033854166,7.589975992838542,3.5578409830729165,6.807963053385417,0.07375081380208333,22.469838460286457,29.099146525065105,16.30083719889323,7.180531819661458,4.665374755859375,7.3235829671223955,3.662109375,6.6763559977213545,0.0705718994140625,23.817062377929688,22.246678670247395
92.0,12.428919474283854,7.403055826822917,3.6411285400390625,6.7488352457682295,0.0782012939453125,26.372909545898438,22.000630696614582,11.189142862955729,14.852523803710938,15.647252400716146,7.611592610677083,3.4993489583333335,6.9637298583984375,0.0782012939453125,22.24286397298177,11.116663614908854
93.0,21.828969319661457,7.6904296875,3.5196940104166665,6.9052378336588545,0.08265177408854167,22.02288309733073,13.849894205729166,24.785995483398438,26.114145914713543,22.61034647623698,7.464090983072917,3.620783487955729,6.673177083333333,0.08265177408854167,12.651443481445312,13.663609822591146
94.0,23.810068766276043,7.310231526692708,3.658930460611979,6.694793701171875,0.0934600830078125,13.402938842773438,22.916158040364582,29.937108357747395,23.821512858072918,18.564224243164062,7.4914296468098955,3.5228729248046875,6.9179534912109375,0.10744730631510417,9.981155395507812,24.789810180664062
95.0,16.49030049641927,7.659912109375,3.506342569986979,6.946563720703125,0.1068115234375,16.897837320963543,29.646555582682293,23.885091145833332,11.754989624023438,6.9713592529296875,7.600148518880208,3.581364949544271,6.7882537841796875,0.07311503092447917,21.224339803059895,25.708516438802082
96.0,7.8105926513671875,7.3451995849609375,3.632227579752604,6.755828857421875,0.110626220703125,24.21124776204427,26.355743408203125,12.137730916341146,7.963816324869792,8.124033610026041,7.359822591145833,3.57818603515625,6.8073272705078125,0.06739298502604167,23.82342020670573,16.959508260091145
97.0,16.04779561360677,7.563273111979167,3.50189208984375,6.987253824869792,0.072479248046875,23.836771647135418,16.427993774414062,17.194747924804688,22.011439005533855,19.992828369140625,7.6580047607421875,3.547032674153646,6.8492889404296875,0.09918212890625,17.78411865234375,8.818308512369791
98.0,24.181365966796875,7.494608561197917,3.639856974283854,7.1468353271484375,0.0934600830078125,17.014821370442707,16.458511352539062,27.518590291341145,26.892979939778645,22.11761474609375,7.3426564534505205,3.6608378092447915,6.772359212239583,0.125885009765625,8.694330851236979,19.59673563639323
99.0,21.685282389322918,7.4342091878255205,3.57818603515625,6.8174997965494795,0.0858306884765625,13.170242309570312,26.460647583007812,27.751922607421875,18.449783325195312,14.094034830729166,7.62176513671875,3.525416056315104,6.9281260172526045,0.0972747802734375,14.712651570638021,26.015599568684895
100.0,11.013031005859375,7.6198577880859375,3.558476765950521,6.90460205078125,0.07120768229166667,22.09917704264323,29.157002766927082,17.62835184733073,6.5784454345703125,4.647572835286458,7.340749104817708,3.696441650390625,6.6827138264973955,0.1220703125,23.61615498860677,22.581100463867188
101.0,9.950002034505209,7.345835367838542,3.6404927571614585,6.7462921142578125,0.0762939453125,25.07336934407552,22.474924723307293,11.921564737955729,14.047622680664062,13.843536376953125,7.563273111979167,3.543217976888021,6.955464680989583,0.10744730631510417,21.836598714192707,11.697133382161459
102.0,20.79010009765625,7.69805908203125,3.521601359049479,6.9268544514973955,0.07375081380208333,21.88428243001302,13.980229695638021,23.97918701171875,25.591532389322918,22.176742553710938,7.4481964111328125,3.6951700846354165,6.7056020100911455,0.10553995768229167,13.189951578776041,12.226104736328125
103.0,24.239222208658855,7.333119710286458,3.665288289388021,6.7043304443359375,0.072479248046875,13.456980387369791,22.265116373697918,29.136021931966145,23.964564005533855,19.1650390625,7.4952443440755205,3.5266876220703125,6.8365732828776045,0.06930033365885417,9.182612101236979,24.450937906901043
104.0,17.14642842610677,7.5867970784505205,3.4847259521484375,6.985982259114583,0.1049041748046875,15.717188517252604,29.020309448242188,24.628321329752605,12.736002604166666,8.173624674479166,7.6007843017578125,3.574371337890625,6.848653157552083,0.06103515625,20.119349161783855,26.952743530273438
105.0,8.562088012695312,7.3986053466796875,3.646214803059896,6.692250569661458,0.08138020833333333,23.870468139648438,27.59997049967448,12.338638305664062,7.467905680338542,7.5531005859375,7.335662841796875,3.490447998046875,6.744384765625,0.110626220703125,23.916880289713543,18.520355224609375
106.0,15.516916910807291,7.490793863932292,3.5425821940104165,6.937662760416667,0.10426839192708333,24.327596028645832,16.969045003255207,16.122182210286457,21.643956502278645,19.4244384765625,7.6923370361328125,3.529230753580729,6.882985432942708,0.080108642578125,18.576939900716145,8.868535359700521
107.0,23.042678833007812,7.577260335286458,3.655115763346354,6.773630777994792,0.0934600830078125,17.716089884440105,15.700022379557291,27.416229248046875,26.4739990234375,21.803538004557293,7.358551025390625,3.7167867024739585,6.7132314046223955,0.08392333984375,8.516311645507812,17.57367451985677
108.0,21.416982014973957,7.427215576171875,3.6760965983072915,6.8365732828776045,0.09791056315104167,12.938181559244791,26.265462239583332,27.921676635742188,19.489288330078125,15.119552612304688,7.691701253255208,3.4764607747395835,6.9166819254557295,0.057220458984375,13.554255167643229,26.044209798177082
109.0,11.746088663736979,7.62939453125,3.5273234049479165,6.5898895263671875,0.08328755696614583,20.985921223958332,28.792699178059895,18.56676737467448,6.969451904296875,4.8071543375651045,7.382710774739583,4.0429433186848955,6.61468505859375,0.10236104329427083,23.344039916992188,22.669474283854168
110.0,9.581247965494791,7.3820749918619795,3.674189249674479,6.7424774169921875,0.09854634602864583,25.467554728190105,22.696177164713543,10.966618855794271,13.161341349283854,12.935002644856771,7.5766245524088545,3.5502115885416665,6.9128672281901045,0.1068115234375,22.759755452473957,12.463887532552084
111.0,20.844141642252605,7.59124755859375,3.5463968912760415,6.90460205078125,0.12842814127604166,22.726058959960938,14.160792032877604,22.74004618326823,25.117874145507812,22.025426228841145,7.536570231119792,3.597895304361979,6.7183176676432295,0.10045369466145833,14.198939005533854,11.6424560546875
112.0,23.75475565592448,7.356007893880208,3.6646525065104165,6.6916147867838545,0.09663899739583333,13.823827107747396,20.79010009765625,29.50286865234375,24.852752685546875,19.68828837076823,7.4392954508463545,3.563563028971354,6.8416595458984375,0.07756551106770833,8.095423380533854,23.35802714029948
113.0,18.207550048828125,7.568359375,3.498077392578125,6.9777170817057295,0.06993611653645833,15.612284342447916,25.870005289713543,24.159749348958332,13.729095458984375,8.977254231770834,7.670084635416667,3.6290486653645835,6.8359375,0.0762939453125,19.377390543619793,27.088165283203125
114.0,8.291244506835938,7.43865966796875,3.6455790201822915,6.760915120442708,0.07883707682291667,23.694992065429688,27.718226114908855,13.755162556966146,8.014678955078125,6.487528483072917,7.3909759521484375,3.6519368489583335,6.8976084391276045,0.09918212890625,24.34984842936198,19.317626953125
115.0,14.548619588216146,7.526397705078125,3.577550252278646,6.8632761637369795,0.10808308919270833,24.24176534016927,18.046061197916668,14.214197794596354,19.833882649739582,19.198099772135418,7.666269938151042,3.5031636555989585,6.9561004638671875,0.08138020833333333,19.23370361328125,9.451548258463541
116.0,23.24231465657552,7.5842539469401045,3.5921732584635415,6.796518961588542,0.09473164876302083,18.538792928059895,15.428543090820312,27.229944864908855,26.808420817057293,22.867202758789062,7.3146820068359375,3.693262736002604,6.7056020100911455,0.08138020833333333,9.347279866536459,17.174402872721355
117.0,22.569656372070312,7.4024200439453125,3.6379496256510415,6.796518961588542,0.0762939453125,12.882868448893229,26.159922281901043,28.65282694498698,20.437876383463543,15.558878580729166,7.6567331949869795,3.5184224446614585,6.9688161214192705,0.091552734375,12.858708699544271,26.052474975585938
118.0,12.221654256184896,7.612864176432292,3.5769144694010415,6.900787353515625,0.09981791178385417,20.679473876953125,29.572168986002605,20.059585571289062,7.5842539469401045,4.595438639322917,7.4075063069661455,3.650029500325521,6.7170461018880205,0.0820159912109375,23.30780029296875,24.065017700195312
119.0,8.616765340169271,7.3502858479817705,3.650665283203125,6.785074869791667,0.0820159912109375,25.350570678710938,23.905436197916668,11.414210001627604,12.210210164388021,11.355082194010416,7.481892903645833,3.5114288330078125,6.978352864583333,0.1068115234375,22.34649658203125,13.430913289388021
120.0,19.435882568359375,7.6122283935546875,3.5152435302734375,6.954193115234375,0.0896453857421875,22.57855733235677,14.596303304036459,21.261850992838543,24.886449178059895,21.417617797851562,7.5130462646484375,3.578821818033854,6.7907969156901045,0.07502237955729167,14.905293782552084,10.81085205078125
121.0,24.126052856445312,7.334391276041667,3.6646525065104165,6.6649119059244795,0.06739298502604167,15.501022338867188,20.041147867838543,30.083338419596355,25.565465291341145,20.165761311848957,7.4698130289713545,3.6036173502604165,6.8365732828776045,0.11698404947916667,8.726755777994791,23.057937622070312
122.0,19.05377705891927,7.554372151692708,3.5527547200520835,6.9624582926432295,0.1049041748046875,15.275319417317709,29.132843017578125,25.07464090983073,14.476776123046875,9.648005167643229,7.6669057210286455,3.548304239908854,6.867726643880208,0.1010894775390625,18.63416035970052,26.533762613932293
123.0,8.490244547526041,7.43865966796875,3.6074320475260415,6.834665934244792,0.110626220703125,23.056666056315105,28.079986572265625,13.979593912760416,5.884806315104167,5.9274037679036455,7.353464762369792,3.638585408528646,6.815592447916667,0.08265177408854167,23.778279622395832,19.793192545572918
124.0,13.158798217773438,7.427215576171875,3.574371337890625,6.884256998697917,0.10045369466145833,24.396896362304688,18.95904541015625,13.511021931966146,18.851598103841145,17.675399780273438,7.65228271484375,3.528594970703125,6.936391194661458,0.10172526041666667,19.7601318359375,9.685516357421875
125.0,22.827784220377605,7.570902506510417,3.6163330078125,6.7920684814453125,0.1087188720703125,18.559773763020832,14.708836873372396,26.3519287109375,26.633580525716145,22.218068440755207,7.3299407958984375,3.665288289388021,6.7157745361328125,0.08265177408854167,9.277979532877604,16.161600748697918
126.0,22.979736328125,7.3719024658203125,3.6449432373046875,6.8213144938151045,0.07947285970052083,12.982050577799479,24.744033813476562,29.125213623046875,21.308263142903645,15.897750854492188,7.567087809244792,3.4955342610677085,6.9128672281901045,0.06421407063802083,11.507034301757812,25.427500406901043
127.0,13.198216756184896,7.691701253255208,3.497441609700521,6.928761800130208,0.12461344401041667,20.715713500976562,29.299418131510418,20.414988199869793,8.152643839518229,5.126953125,7.406870524088542,3.646214803059896,6.735483805338542,0.095367431640625,22.727330525716145,24.05993143717448
128.0,7.5588226318359375,7.3057810465494795,3.6557515462239585,6.73675537109375,0.061670939127604164,25.316238403320312,24.47954813639323,11.556625366210938,10.582605997721354,10.579427083333334,7.5155893961588545,3.582636515299479,6.888071695963542,0.10363260904947917,23.302714029947918,14.657338460286459
129.0,18.894195556640625,7.6020558675130205,3.4961700439453125,6.989796956380208,0.10553995768229167,23.522694905598957,14.766057332356771,21.840413411458332,25.385538736979168,21.03869120279948,7.603963216145833,3.605524698893229,6.785074869791667,0.08900960286458333,15.689214070638021,10.318756103515625
130.0,23.976643880208332,7.373809814453125,3.6481221516927085,6.64520263671875,0.12652079264322916,15.508651733398438,18.156687418619793,29.74255879720052,26.327768961588543,20.508448282877605,7.378896077473958,3.650665283203125,6.8225860595703125,0.07565816243489583,8.260726928710938,21.320343017578125
131.0,19.101460774739582,7.5295766194661455,3.490447998046875,6.91986083984375,0.0972747802734375,14.496485392252604,28.00305684407552,25.624593098958332,14.771779378255209,10.842005411783854,7.649739583333333,3.513971964518229,6.84356689453125,0.0896453857421875,17.763137817382812,26.372909545898438
132.0,9.160995483398438,7.5511932373046875,3.5883585611979165,6.766001383463542,0.1087188720703125,23.302078247070312,28.090794881184895,13.851801554361979,5.9960683186848955,5.329132080078125,7.303873697916667,3.6754608154296875,6.701151529947917,0.091552734375,23.859659830729168,20.331700642903645
133.0,12.567520141601562,7.403055826822917,3.5794576009114585,6.8136850992838545,0.10935465494791667,24.92078145345052,19.418716430664062,13.142903645833334,17.443339029947918,17.365137736002605,7.659912109375,3.491083780924479,6.902058919270833,0.09028116861979167,20.310084025065105,9.613037109375
134.0,22.490819295247395,7.593790690104167,3.5228729248046875,6.875356038411458,0.1125335693359375,19.4091796875,13.996124267578125,25.701522827148438,27.022679646809895,22.489547729492188,7.3630015055338545,3.6684672037760415,6.6903432210286455,0.0934600830078125,9.938557942708334,14.605840047200521
135.0,23.035685221354168,7.3604583740234375,3.72314453125,6.7679087320963545,0.0591278076171875,12.87078857421875,24.431864420572918,30.405680338541668,22.780736287434895,17.088572184244793,7.5181325276692705,3.4847259521484375,6.9459279378255205,0.07184346516927083,11.864344278971354,24.680455525716145
136.0,14.322916666666666,7.6084136962890625,3.5641988118489585,6.91986083984375,0.09218851725260417,19.1497802734375,28.287251790364582,21.675745646158855,9.714126586914062,5.251566569010417,7.441202799479167,3.62396240234375,6.6992441813151045,0.10045369466145833,22.408803304036457,24.120330810546875
137.0,7.478078206380208,7.311503092447917,3.6760965983072915,6.72149658203125,0.09854634602864583,25.000890096028645,24.492263793945312,11.082967122395834,10.203043619791666,9.591420491536459,7.481892903645833,3.577550252278646,6.8505605061848955,0.08328755696614583,23.476918538411457,14.689763387044271
138.0,18.065770467122395,7.5982411702473955,3.506342569986979,6.952921549479167,0.11380513509114583,23.836771647135418,15.059789021809896,19.758224487304688,24.125417073567707,20.819346110026043,7.5804392496744795,3.578821818033854,6.898244222005208,0.0324249267578125,16.654332478841145,9.953816731770834
139.0,23.15966288248698,7.42340087890625,3.623326619466146,6.4996083577473955,0.09663899739583333,15.282313028971354,17.711639404296875,29.34583028157552,26.398340861002605,20.491282145182293,7.33184814453125,3.5228729248046875,6.768544514973958,0.10426839192708333,7.770538330078125,20.805994669596355
140.0,20.468393961588543,7.539113362630208,3.525416056315104,6.9395701090494795,0.091552734375,14.187494913736979,27.879079182942707,26.778539021809895,16.859054565429688,11.510213216145834,7.6402028401692705,3.502527872721354,6.933848063151042,0.060399373372395836,16.656875610351562,26.442209879557293
141.0,9.238560994466146,7.5422922770182295,3.566106160481771,6.802876790364583,0.07311503092447917,22.345225016276043,28.011322021484375,15.334447224934896,7.203420003255208,4.9139658610026045,7.3566436767578125,3.676732381184896,6.726582845052083,0.10426839192708333,23.796717325846355,20.861307779947918
142.0,11.725107828776041,7.405598958333333,3.6869049072265625,6.926218668619792,0.08519490559895833,25.341033935546875,20.203272501627605,12.642542521158854,16.54052734375,15.686670939127604,7.589975992838542,3.490447998046875,6.922403971354167,0.056584676106770836,21.291097005208332,9.716033935546875
143.0,21.651585896809895,7.6389312744140625,3.512700398763021,6.88934326171875,0.06612141927083333,19.378026326497395,13.86260986328125,24.797439575195312,26.308059692382812,21.634419759114582,7.4005126953125,3.605524698893229,6.825764973958333,0.06802876790364583,10.794957478841146,13.941446940104166
144.0,23.408889770507812,7.3693593343098955,3.662745157877604,6.77490234375,0.09282430013020833,12.302398681640625,23.330052693684895,28.867721557617188,23.15839131673177,17.942428588867188,7.5092315673828125,3.536224365234375,6.991068522135417,0.087738037109375,10.309219360351562,24.850209554036457
145.0,15.233357747395834,7.6719919840494795,3.4739176432291665,7.010142008463542,0.07947285970052083,17.833709716796875,29.27398681640625,22.01398213704427,10.249455769856771,4.979451497395833,7.525126139322917,3.620147705078125,6.7291259765625,0.064849853515625,21.800994873046875,24.713516235351562
146.0,7.6427459716796875,7.4138641357421875,3.6481221516927085,6.6967010498046875,0.08900960286458333,24.710973103841145,26.020050048828125,11.226654052734375,8.780161539713541,8.712132771809896,7.4698130289713545,3.592809041341146,6.8810780843098955,0.072479248046875,23.85266621907552,15.981674194335938
147.0,16.473770141601562,7.5836181640625,3.5235087076822915,6.93511962890625,0.07375081380208333,23.488998413085938,15.766779581705729,18.07403564453125,23.043314615885418,20.371754964192707,7.71331787109375,3.5495758056640625,6.8378448486328125,0.08138020833333333,16.883214314778645,9.006500244140625
148.0,23.76874287923177,7.470448811848958,3.6220550537109375,6.688435872395833,0.08392333984375,15.859603881835938,17.417271931966145,29.932022094726562,27.249654134114582,21.434783935546875,7.352193196614583,3.650029500325521,6.771087646484375,0.09600321451822917,8.040746053059896,20.63306172688802
149.0,21.16839090983073,7.4876149495442705,3.6061604817708335,6.814320882161458,0.08455912272135417,13.512929280598959,26.114781697591145,27.253468831380207,17.599741617838543,12.576421101888021,7.671356201171875,3.5451253255208335,6.938934326171875,0.0934600830078125,14.959335327148438,25.485992431640625
150.0,10.030110677083334,7.584889729817708,3.5495758056640625,6.8454742431640625,0.09981791178385417,21.88873291015625,28.296788533528645,15.949249267578125,5.839029947916667,3.829320271809896,7.3553721110026045,3.653844197591146,6.710052490234375,0.125885009765625,23.687362670898438,21.471659342447918
151.0,10.403951009114584,7.429758707682292,3.6792755126953125,6.8505605061848955,0.07502237955729167,24.677276611328125,21.552403767903645,11.800765991210938,14.328638712565104,14.870325724283854,7.649739583333333,3.5374959309895835,6.9166819254557295,0.06103515625,21.276473999023438,11.389414469401041
152.0,21.106719970703125,7.671356201171875,3.509521484375,6.893157958984375,0.0762939453125,20.33551534016927,13.8397216796875,24.305343627929688,25.959014892578125,22.356033325195312,7.4609120686848955,3.6602020263671875,6.702423095703125,0.08074442545572917,11.660257975260416,12.881596883138021
153.0,24.65057373046875,7.272084554036458,3.639856974283854,6.7450205485026045,0.058492024739583336,12.834548950195312,22.08709716796875,29.462814331054688,23.153305053710938,18.96349589029948,7.5232187906901045,3.612518310546875,6.895701090494792,0.07692972819010417,9.428660074869791,24.763743082682293
154.0,16.92644755045573,7.6402028401692705,3.5425821940104165,6.9103240966796875,0.095367431640625,17.487843831380207,29.891331990559895,23.238499959309895,10.744730631510416,6.604512532552083,7.6185862223307295,3.502527872721354,6.7488352457682295,0.08900960286458333,21.16711934407552,26.032129923502605
155.0,7.9657236735026045,7.394154866536458,3.6799112955729165,6.70623779296875,0.08646647135416667,24.75293477376302,26.198705037434895,11.288960774739584,7.746378580729167,7.8983306884765625,7.459004720052083,3.628412882486979,6.792704264322917,0.0743865966796875,24.628321329752605,16.83362325032552
156.0,15.862782796223959,7.5372060139973955,3.5114288330078125,6.9459279378255205,0.0820159912109375,23.832321166992188,15.803654988606771,17.383575439453125,22.421518961588543,20.233790079752605,7.6694488525390625,3.554662068684896,6.8607330322265625,0.09473164876302083,17.545700073242188,8.489608764648438
157.0,23.392359415690105,7.5524648030598955,3.631591796875,6.7138671875,0.11952718098958333,16.656239827473957,15.741348266601562,27.767181396484375,26.318868001302082,21.794637044270832,7.3502858479817705,3.6443074544270835,6.762186686197917,0.0820159912109375,7.8550974527994795,18.772125244140625
158.0,20.853678385416668,7.4354807535807295,3.57818603515625,6.867726643880208,0.0934600830078125,12.788772583007812,27.77417500813802,27.81232198079427,18.428802490234375,13.363520304361979,7.6681772867838545,3.5190582275390625,6.917317708333333,0.087738037109375,14.387130737304688,26.80651346842448
159.0,10.846455891927084,7.653554280598958,3.5489400227864585,6.8454742431640625,0.06930033365885417,20.697275797526043,28.71259053548177,17.374674479166668,6.552378336588542,4.262288411458333,7.359822591145833,3.6671956380208335,6.727854410807292,0.08519490559895833,23.455301920572918,22.036234537760418
160.0,9.873708089192709,7.350921630859375,3.665924072265625,6.772359212239583,0.08138020833333333,24.900436401367188,21.666844685872395,11.067708333333334,14.261881510416666,14.154434204101562,7.5639088948567705,3.516515096028646,6.9306691487630205,0.095367431640625,21.941502888997395,11.555353800455729
161.0,20.688374837239582,7.678985595703125,3.527959187825521,6.9141387939453125,0.07947285970052083,21.621068318684895,15.384674072265625,23.354848225911457,25.50061543782552,22.733688354492188,7.481892903645833,3.6214192708333335,6.69097900390625,0.11380513509114583,12.863794962565104,12.503306070963541
162.0,24.511337280273438,7.3591868082682295,3.6799112955729165,6.7272186279296875,0.09791056315104167,13.012568155924479,21.156946818033855,29.300689697265625,23.946126302083332,19.16948954264323,7.4545542399088545,3.589630126953125,6.880442301432292,0.10426839192708333,8.539199829101562,23.668289184570312
163.0,16.674041748046875,7.6681772867838545,3.4732818603515625,6.9192250569661455,0.06739298502604167,16.745885213216145,29.106775919596355,23.718516031901043,12.074152628580729,7.7025095621744795,7.6376597086588545,3.5616556803385415,6.7768096923828125,0.11189778645833333,20.583470662434895,25.782267252604168
164.0,9.054183959960938,7.383982340494792,3.6760965983072915,6.755828857421875,0.11444091796875,24.43250020345052,27.07354227701823,11.630376180013021,7.4494679768880205,7.3871612548828125,7.427215576171875,3.642400105794271,6.8022410074869795,0.087738037109375,24.298985799153645,18.0511474609375
165.0,14.500935872395834,7.532755533854167,3.5870869954427085,6.900787353515625,0.0514984130859375,25.015513102213543,16.953786214192707,16.466776529947918,21.272023518880207,18.939971923828125,7.74383544921875,3.5578409830729165,6.87408447265625,0.0896453857421875,18.191019694010418,8.876164754231771
166.0,23.143768310546875,7.548014322916667,3.619511922200521,6.743113199869792,0.1277923583984375,17.641703287760418,15.280405680338541,27.329126993815105,26.349385579427082,21.979649861653645,7.353464762369792,3.6366780598958335,6.7946116129557295,0.11952718098958333,8.403778076171875,17.90301005045573
167.0,23.225148518880207,7.4583689371744795,3.6112467447916665,6.8569183349609375,0.07311503092447917,13.025283813476562,26.629130045572918,26.58843994140625,19.276936848958332,15.408833821614584,7.647196451822917,3.498077392578125,6.9904327392578125,0.09028116861979167,13.584772745768229,26.137034098307293
168.0,12.416203816731771,7.642110188802083,3.5298665364583335,6.9408416748046875,0.12079874674479167,20.27448018391927,29.22503153483073,17.571131388346355,6.6076914469401045,4.6342213948567705,7.344563802083333,3.691991170247396,6.7284901936848955,0.11380513509114583,23.184458414713543,22.92950948079427
169.0,8.860270182291666,7.3299407958984375,3.658930460611979,6.7844390869140625,0.12079874674479167,24.5361328125,22.740681966145832,11.242548624674479,13.521830240885416,12.585957845052084,7.581075032552083,3.539403279622396,6.9599151611328125,0.07311503092447917,21.954854329427082,12.086232503255209
170.0,20.357131958007812,7.643381754557292,3.5870869954427085,6.8976084391276045,0.07947285970052083,21.958033243815105,13.514836629231771,22.677103678385418,25.058746337890625,21.697362263997395,7.526397705078125,3.59344482421875,6.766001383463542,0.07565816243489583,13.552983601888021,10.892232259114584
171.0,25.45928955078125,7.3541005452473955,3.6830902099609375,6.6661834716796875,0.0762939453125,13.520558675130209,20.14923095703125,27.965545654296875,23.801803588867188,20.42071024576823,7.4532826741536455,3.5724639892578125,6.825764973958333,0.087738037109375,8.319218953450521,23.123423258463543
172.0,18.228530883789062,7.6122283935546875,3.4853617350260415,6.9427490234375,0.0762939453125,16.49157206217448,28.687795003255207,24.47509765625,12.940724690755209,8.523941040039062,7.628122965494792,3.5680135091145835,6.837209065755208,0.1125335693359375,18.942515055338543,26.002883911132812
173.0,7.527669270833333,7.4310302734375,3.6570231119791665,6.7640940348307295,0.09600321451822917,23.424148559570312,27.585983276367188,12.525558471679688,6.3864390055338545,5.827585856119792,7.342020670572917,3.6519368489583335,6.8314870198567705,0.08900960286458333,23.614247639973957,18.974939982096355
174.0,13.977686564127604,7.4920654296875,3.563563028971354,6.91986083984375,0.09473164876302083,23.83104960123698,18.218358357747395,15.481313069661459,20.28210957845052,18.477121988932293,7.649739583333333,3.5076141357421875,6.9026947021484375,0.08519490559895833,18.69519551595052,8.993148803710938
175.0,22.664388020833332,7.5689951578776045,3.6150614420572915,6.781260172526042,0.07756551106770833,17.564137776692707,15.603383382161459,26.433308919270832,25.974273681640625,22.14368184407552,7.311503092447917,3.689448038736979,6.7221323649088545,0.08710225423177083,8.508682250976562,17.019271850585938
176.0,22.354761759440105,7.4036916097005205,3.5909016927083335,7.4583689371744795,0.09091695149739583,12.526830037434896,25.31750996907552,28.151830037434895,20.19945780436198,15.424728393554688,7.582346598307292,3.5762786865234375,7.015228271484375,0.08455912272135417,12.3443603515625,25.71423848470052
177.0,12.51983642578125,7.649739583333333,3.5031636555989585,6.8569183349609375,0.1220703125,19.804636637369793,29.574076334635418,19.203821818033855,7.211049397786458,4.976908365885417,7.414499918619792,3.6951700846354165,6.6986083984375,0.091552734375,22.388458251953125,23.859659830729168
178.0,8.49151611328125,7.310231526692708,3.707249959309896,6.8162282307942705,0.08837381998697917,25.058746337890625,23.467381795247395,10.960261027018229,12.056350708007812,11.386871337890625,7.5181325276692705,3.5540262858072915,7.0145924886067705,0.059763590494791664,22.667566935221355,13.300577799479166
179.0,19.032796223958332,7.648468017578125,3.5006205240885415,6.9255828857421875,0.1010894775390625,22.195816040039062,13.902664184570312,21.88428243001302,24.651845296223957,21.389007568359375,7.539113362630208,3.5921732584635415,6.7323048909505205,0.07311503092447917,14.409383138020834,10.712305704752604
180.0,23.883819580078125,7.3998769124348955,3.666559855143229,6.724039713541667,0.08074442545572917,14.307657877604166,18.553415934244793,28.591156005859375,24.526596069335938,19.777933756510418,7.418314615885417,3.588994344075521,6.841023763020833,0.125885009765625,7.9364776611328125,22.081375122070312
181.0,18.929163614908855,7.5906117757161455,3.5387674967447915,6.910959879557292,0.06802876790364583,15.966415405273438,28.39215596516927,25.222142537434895,14.668146769205729,9.991963704427084,7.605234781901042,3.5419464111328125,6.8594614664713545,0.06548563639322917,17.579396565755207,26.028951009114582
182.0,9.782791137695312,7.4647267659505205,3.608067830403646,6.823221842447917,0.08265177408854167,24.08599853515625,27.854283650716145,12.809117635091146,5.921681722005208,6.44683837890625,7.2943369547526045,4.085540771484375,6.8022410074869795,0.110626220703125,24.492263793945312,19.461949666341145
183.0,12.48931884765625,7.4920654296875,3.605524698893229,6.8505605061848955,0.0820159912109375,22.492726643880207,18.973668416341145,15.553792317708334,20.227432250976562,17.504374186197918,7.7152252197265625,3.505071004231771,6.886800130208333,0.080108642578125,22.623062133789062,9.119033813476562
184.0,22.37701416015625,7.6262156168619795,3.5572052001953125,6.852467854817708,0.1087188720703125,19.851048787434895,13.0157470703125,26.613871256510418,26.295979817708332,23.256301879882812,7.358551025390625,3.6862691243489585,6.793975830078125,0.09981791178385417,10.487238566080729,15.085220336914062
185.0,22.947311401367188,7.381439208984375,3.6608378092447915,6.8035125732421875,0.12270609537760417,13.0462646484375,24.161656697591145,29.626846313476562,22.09154764811198,16.13171895345052,7.5995127360026045,3.4993489583333335,7.039388020833333,0.06866455078125,11.946996053059896,24.979273478190105
186.0,13.410568237304688,7.6427459716796875,3.505706787109375,6.9065093994140625,0.06548563639322917,19.692103068033855,27.9693603515625,20.775477091471355,8.252461751302084,5.2344004313151045,7.43865966796875,3.6417643229166665,6.77490234375,0.080108642578125,22.883097330729168,23.344675699869793
187.0,7.6872507731119795,7.312774658203125,3.6824544270833335,6.727854410807292,0.06930033365885417,25.351206461588543,23.794174194335938,10.978062947591146,10.84136962890625,10.129928588867188,7.5206756591796875,3.547032674153646,6.9122314453125,0.09918212890625,23.37201436360677,13.775507609049479
188.0,20.10663350423177,7.715861002604167,3.5381317138671875,7.0196787516276045,0.072479248046875,22.669474283854168,14.685312906901041,18.962860107421875,23.705164591471355,21.940867106119793,7.5499216715494795,3.5991668701171875,6.745656331380208,0.11189778645833333,16.103108723958332,9.470621744791666
189.0,24.027506510416668,7.389068603515625,3.6366780598958335,6.745656331380208,0.06993611653645833,14.572779337565104,18.252054850260418,28.249740600585938,25.020599365234375,20.50018310546875,7.439931233723958,3.665288289388021,6.861368815104167,0.08837381998697917,7.8563690185546875,21.433512369791668
190.0,19.353866577148438,7.5664520263671875,3.5680135091145835,6.945292154947917,0.11507670084635417,14.856338500976562,28.071085611979168,25.2532958984375,15.055338541666666,10.389963785807291,7.6643625895182295,3.5120646158854165,6.9065093994140625,0.09409586588541667,17.639795939127605,26.24956766764323
191.0,8.634567260742188,7.5511932373046875,3.6137898763020835,6.708780924479167,0.09854634602864583,23.099899291992188,28.247833251953125,14.187494913736979,5.9223175048828125,5.0334930419921875,7.3248545328776045,3.665288289388021,6.717681884765625,0.1163482666015625,24.222056070963543,20.168304443359375
192.0,11.482874552408854,7.5003306070963545,3.6258697509765625,6.572723388671875,0.10426839192708333,24.23540751139323,19.7906494140625,13.676961263020834,18.205006917317707,16.62762959798177,7.6904296875,3.7244160970052085,6.9573720296223955,0.0820159912109375,19.739151000976562,9.624481201171875
193.0,21.844228108723957,7.691701253255208,3.567377726236979,6.8200429280598955,0.09091695149739583,18.829981486002605,13.530095418294271,25.466283162434895,26.80206298828125,22.467295328776043,7.3451995849609375,3.662745157877604,6.6814422607421875,0.110626220703125,10.174433390299479,14.410018920898438
194.0,23.164113362630207,7.3731740315755205,3.711064656575521,6.753285725911458,0.08074442545572917,12.829462687174479,24.405797322591145,28.32349141438802,21.524429321289062,17.054239908854168,7.5893402099609375,3.4891764322916665,6.966908772786458,0.07756551106770833,11.130650838216146,25.270462036132812
195.0,14.112472534179688,7.7056884765625,3.5235087076822915,6.9319407145182295,0.1010894775390625,18.74097188313802,29.351552327473957,20.777384440104168,8.597691853841146,5.31768798828125,7.476806640625,3.5985310872395835,6.704966227213542,0.054677327473958336,21.91607157389323,24.740219116210938
196.0,7.6465606689453125,7.320404052734375,3.661473592122396,6.7348480224609375,0.10426839192708333,24.617513020833332,25.31115214029948,11.284510294596354,9.813944498697916,9.424845377604166,7.5028737386067705,3.601710001627604,6.9128672281901045,0.06612141927083333,23.278554280598957,15.062332153320312
197.0,18.131256103515625,7.666269938151042,3.4917195638020835,6.971995035807292,0.1010894775390625,23.04395039876302,14.350255330403646,18.802642822265625,22.930145263671875,20.780563354492188,7.6529184977213545,3.586451212565104,6.8009694417317705,0.0762939453125,16.181310017903645,8.366902669270834
198.0,23.74267578125,7.4462890625,3.6608378092447915,6.680806477864583,0.07692972819010417,14.865239461263021,17.822265625,28.588612874348957,26.131312052408855,20.993550618489582,7.415771484375,3.627141316731771,6.7501068115234375,0.095367431640625,7.094065348307292,21.039962768554688
199.0,19.713083902994793,7.5225830078125,3.638585408528646,6.8963368733723955,0.09218851725260417,13.399124145507812,27.575174967447918,26.670455932617188,16.26141866048177,11.124928792317709,7.719675699869792,3.552118937174479,6.9243113199869795,0.06103515625,15.734354654947916,26.450475056966145
200.0,9.7198486328125,7.595062255859375,3.575007120768229,6.85882568359375,0.10236104329427083,22.4151611328125,28.556187947591145,14.943440755208334,5.9172312418619795,4.781087239583333,7.32421875,3.688812255859375,6.7221323649088545,0.10553995768229167,24.012247721354168,21.166483561197918
201.0,11.160532633463541,7.428487141927083,3.635406494140625,6.8378448486328125,0.09473164876302083,25.03522237141927,20.74750264485677,12.709935506184896,16.618728637695312,15.839894612630209,7.654825846354167,3.491083780924479,7.022857666015625,0.10236104329427083,20.807902018229168,9.713490804036459
202.0,21.550496419270832,7.6478322347005205,3.509521484375,6.886800130208333,0.06612141927083333,19.482930501302082,13.205210367838541,24.718602498372395,25.69580078125,22.22887674967448,7.415771484375,3.6951700846354165,6.6839853922526045,0.08837381998697917,11.101404825846354,13.495763142903646
203.0,23.565928141276043,7.401784261067708,3.6989847819010415,6.739298502604167,0.10236104329427083,12.791951497395834,23.04840087890625,28.710683186848957,22.397359212239582,17.856597900390625,7.569630940755208,3.548304239908854,6.93511962890625,0.0934600830078125,10.350545247395834,24.721145629882812
204.0,15.409469604492188,7.779439290364583,3.508885701497396,6.961822509765625,0.08138020833333333,42.12252298990885,29.198964436848957,21.930694580078125,9.897232055664062,6.074269612630208,7.4914296468098955,3.601710001627604,6.779988606770833,0.08455912272135417,21.842320760091145,25.510152180989582
205.0,6.214141845703125,7.3986053466796875,3.681818644205729,6.6839853922526045,0.12715657552083334,24.834950764973957,25.651295979817707,11.117299397786459,8.79669189453125,8.090337117513021,7.5346628824869795,3.585179646809896,7.1868896484375,0.09028116861979167,23.79926045735677,15.858332316080729
206.0,16.427993774414062,7.597605387369792,3.5718282063802085,6.93511962890625,0.09791056315104167,23.14313252766927,15.189488728841146,18.016815185546875,23.15076192220052,19.929250081380207,7.635752360026042,3.543853759765625,6.8365732828776045,0.10363260904947917,16.276041666666668,8.584976196289062
207.0,24.241129557291668,7.4698130289713545,3.612518310546875,6.701151529947917,0.10999043782552083,15.927632649739584,16.634623209635418,28.101603190104168,26.11541748046875,21.622975667317707,7.3820749918619795,3.6633809407552085,6.7958831787109375,0.072479248046875,8.178075154622396,19.753138224283855
208.0,20.587921142578125,7.516225179036458,3.5616556803385415,6.786346435546875,0.07120768229166667,13.734817504882812,26.95147196451823,26.665369669596355,17.088572184244793,12.837092081705729,7.6745351155598955,3.4968058268229165,7.109324137369792,0.087738037109375,15.392939249674479,25.843302408854168
209.0,9.878794352213541,7.6122283935546875,3.559112548828125,6.8060557047526045,0.06421407063802083,22.33123779296875,28.785069783528645,15.705108642578125,6.44683837890625,4.063924153645833,7.3566436767578125,3.7136077880859375,6.674448649088542,0.0629425048828125,23.857752482096355,22.108713785807293
210.0,10.336558024088541,7.3833465576171875,3.627141316731771,6.802876790364583,0.09981791178385417,25.095621744791668,20.796457926432293,11.640548706054688,15.286763509114584,14.588673909505209,7.639567057291667,3.5031636555989585,6.945292154947917,0.0476837158203125,21.398544311523438,10.406494140625
211.0,21.322886149088543,7.740020751953125,3.5196940104166665,6.893157958984375,0.0629425048828125,21.31207784016927,13.64898681640625,24.430592854817707,25.616963704427082,22.225062052408855,7.4380238850911455,3.680547078450521,6.368001302083333,0.08900960286458333,12.228647867838541,12.893040974934896
212.0,23.825327555338543,7.3744455973307295,3.6608378092447915,6.708780924479167,0.091552734375,13.409932454427084,21.475474039713543,28.731664021809895,23.662567138671875,18.59601338704427,7.5969696044921875,3.5336812337239585,6.9026947021484375,0.08074442545572917,9.879430135091146,23.241678873697918
213.0,16.422271728515625,7.6923370361328125,3.508885701497396,6.9586435953776045,0.10808308919270833,17.584482828776043,29.329299926757812,23.036956787109375,10.597864786783854,6.9192250569661455,7.587432861328125,3.612518310546875,6.796518961588542,0.11952718098958333,21.16839090983073,25.129318237304688
214.0,7.307688395182292,7.3655446370442705,3.657658894856771,6.7310333251953125,0.08328755696614583,24.536768595377605,26.3671875,11.80267333984375,8.267720540364584,8.387883504231771,7.4888865152994795,3.650665283203125,6.865183512369792,0.08646647135416667,23.993174235026043,17.00592041015625
215.0,15.6402587890625,7.62176513671875,3.5260518391927085,6.9561004638671875,0.09663899739583333,23.606618245442707,16.100565592447918,16.774495442708332,22.073109944661457,19.648234049479168,7.6630910237630205,3.5374959309895835,6.876627604166667,0.09854634602864583,17.122904459635418,8.839289347330729
216.0,23.41461181640625,7.5003306070963545,3.581364949544271,6.7145029703776045,0.062306722005208336,16.396204630533855,16.06432596842448,27.765274047851562,26.571909586588543,21.734237670898438,7.4024200439453125,3.68499755859375,6.7526499430338545,0.1125335693359375,7.7571868896484375,18.67230733235677
217.0,21.085739135742188,7.511138916015625,3.575007120768229,6.857554117838542,0.09282430013020833,13.172785441080729,26.337941487630207,27.65337626139323,18.22980244954427,13.512929280598959,7.6783498128255205,3.527959187825521,6.930033365885417,0.057856241861979164,14.497121175130209,25.632222493489582
218.0,10.448455810546875,7.620493570963542,3.5800933837890625,6.8467458089192705,0.0896453857421875,22.118250528971355,29.170989990234375,17.496744791666668,6.5517425537109375,4.1357676188151045,7.380167643229167,3.6602020263671875,6.6852569580078125,0.09663899739583333,22.825876871744793,22.432963053385418
219.0,10.168075561523438,7.409413655598958,3.670374552408854,6.8022410074869795,0.10553995768229167,24.185816446940105,21.657307942708332,11.580785115559896,14.059702555338541,13.774871826171875,7.620493570963542,3.527959187825521,6.9548288981119795,0.07883707682291667,21.406173706054688,11.471430460611979
220.0,20.530064900716145,7.6859792073567705,3.491083780924479,6.899515787760417,0.054041544596354164,20.78692118326823,13.413111368815104,23.718516031901043,26.27881368001302,21.757125854492188,7.493336995442708,3.646214803059896,6.7119598388671875,0.054041544596354164,12.392044067382812,11.935551961263021
221.0,24.060567220052082,7.4405670166015625,3.688812255859375,6.7094167073567705,0.07883707682291667,13.121287027994791,20.870208740234375,28.516133626302082,24.05103047688802,18.3563232421875,7.54547119140625,3.581364949544271,6.879170735677083,0.0782012939453125,8.968353271484375,23.602803548177082
222.0,16.715367635091145,7.6313018798828125,3.4459431966145835,7.0323944091796875,0.0820159912109375,16.587575276692707,28.647740681966145,23.51061503092448,12.13836669921875,7.457733154296875,7.6376597086588545,3.5800933837890625,6.7844390869140625,0.07756551106770833,19.670486450195312,25.57818094889323
223.0,7.2371164957682295,7.478078206380208,3.6366780598958335,6.6827138264973955,0.091552734375,24.047215779622395,26.48480733235677,11.906941731770834,7.4615478515625,6.490071614583333,7.4939727783203125,3.716150919596354,6.7818959554036455,0.10808308919270833,24.20806884765625,17.904917399088543
224.0,13.833999633789062,7.5836181640625,3.5527547200520835,6.941477457682292,0.07375081380208333,23.969650268554688,16.39238993326823,16.54052734375,21.418253580729168,18.712997436523438,7.6796213785807295,3.5235087076822915,6.875356038411458,0.0896453857421875,18.158594767252605,8.591969807942709
225.0,23.474375406901043,7.5410207112630205,3.577550252278646,6.758371988932292,0.0782012939453125,17.798105875651043,15.076319376627604,26.502609252929688,25.718053181966145,21.95294698079427,7.406870524088542,3.688176472981771,6.711324055989583,0.08265177408854167,8.017222086588541,17.576853434244793
226.0,21.500269571940105,7.4615478515625,3.60107421875,6.885528564453125,0.0629425048828125,12.343724568684896,25.854110717773438,27.97698974609375,19.446690877278645,14.077504475911459,7.6503753662109375,3.48663330078125,6.9739023844401045,0.08710225423177083,13.312021891276041,25.855382283528645
227.0,11.404673258463541,7.6446533203125,3.5489400227864585,6.87408447265625,0.09663899739583333,20.57965596516927,29.404958089192707,18.770853678385418,7.1493784586588545,4.235585530598958,7.4125925699869795,3.665924072265625,7.298787434895833,0.06612141927083333,23.134867350260418,22.76929219563802
228.0,8.935928344726562,7.3451995849609375,3.6595662434895835,6.8823496500651045,0.08328755696614583,24.335225423177082,22.668838500976562,11.309941609700521,13.329188028971354,12.520472208658854,7.5575510660807295,3.516515096028646,6.886800130208333,0.0705718994140625,22.09790547688802,12.208302815755209
229.0,19.565582275390625,7.699330647786458,3.498077392578125,6.9192250569661455,0.064849853515625,21.47356669108073,13.722101847330729,22.411346435546875,24.995803833007812,21.48119608561198,7.5270334879557295,3.63922119140625,6.7157745361328125,0.05340576171875,13.529459635416666,11.186599731445312
230.0,24.327596028645832,7.3515574137369795,3.6640167236328125,6.7208607991536455,0.0743865966796875,13.127009073893229,19.947052001953125,28.516769409179688,24.442672729492188,19.625345865885418,7.4901580810546875,3.588994344075521,6.918589274088542,0.102996826171875,8.003870646158854,22.88373311360677
231.0,17.653147379557293,7.6173146565755205,3.5343170166015625,6.984710693359375,0.0934600830078125,15.948613484700521,28.5797119140625,24.599075317382812,12.944539388020834,8.615493774414062,7.612864176432292,3.5540262858072915,6.852467854817708,0.080108642578125,19.466400146484375,25.865554809570312
232.0,6.7780812581380205,7.4570973714192705,3.6608378092447915,6.7157745361328125,0.0762939453125,23.596445719401043,26.365915934244793,12.591044108072916,6.563822428385417,6.0151418050130205,7.358551025390625,3.6341349283854165,6.76727294921875,0.08837381998697917,23.86474609375,17.45287577311198
233.0,13.490676879882812,7.4761708577473955,3.5686492919921875,6.89697265625,0.0934600830078125,24.810791015625,17.637252807617188,15.289942423502604,20.166397094726562,18.309275309244793,7.6592763264973955,3.5107930501302085,6.908416748046875,0.08138020833333333,18.792470296223957,9.012222290039062
234.0,22.01525370279948,7.5473785400390625,3.5610198974609375,6.779988606770833,0.0858306884765625,17.289479573567707,14.870961507161459,27.06146240234375,26.482899983723957,21.750132242838543,7.3464711507161455,4.1166941324869795,6.679534912109375,0.091552734375,8.101781209309896,15.851974487304688
235.0,22.290547688802082,7.4481964111328125,3.6137898763020835,6.8251291910807295,0.07565816243489583,12.571334838867188,24.770100911458332,28.04883321126302,20.071029663085938,15.214284261067709,7.6452891031901045,3.485997517903646,6.9497426350911455,0.07375081380208333,27.712504069010418,24.957021077473957
236.0,12.498219807942709,7.687886555989583,3.5311381022135415,6.923675537109375,0.064849853515625,17.61945088704427,29.249191284179688,19.408543904622395,7.2294871012369795,4.4244130452473955,7.3871612548828125,3.6519368489583335,6.746927897135417,0.08392333984375,21.523157755533855,23.35357666015625
237.0,8.29315185546875,7.321675618489583,3.6608378092447915,6.7310333251953125,0.0972747802734375,24.531046549479168,22.959391276041668,11.074701944986979,12.080510457356771,11.992772420247396,7.548014322916667,3.559748331705729,6.9370269775390625,0.0782012939453125,22.608439127604168,12.87078857421875
238.0,18.97875467936198,7.7203114827473955,3.5107930501302085,6.9522857666015625,0.11952718098958333,21.676381429036457,13.146718343098959,21.599451700846355,25.131861368815105,21.38519287109375,7.5486501057942705,3.5858154296875,6.882985432942708,0.06357828776041667,14.081319173177084,10.016123453776041
239.0,24.07519022623698,7.3846181233723955,3.658930460611979,6.6788991292317705,0.07375081380208333,14.668782552083334,18.842697143554688,30.169169108072918,25.530497233072918,20.072301228841145,7.455190022786458,3.6417643229166665,6.830851236979167,0.08837381998697917,8.241017659505209,22.231419881184895
240.0,18.07403564453125,7.6313018798828125,3.498077392578125,6.9192250569661455,0.09282430013020833,15.191396077473959,27.055104573567707,25.943756103515625,14.542897542317709,7.6999664306640625,7.710774739583333,3.5641988118489585,6.9052378336588545,0.08519490559895833,18.57439676920573,25.362014770507812
241.0,7.845560709635417,7.508595784505208,3.6341349283854165,6.7348480224609375,0.056584676106770836,23.339589436848957,27.202606201171875,13.383229573567709,6.445566813151042,5.42449951171875,7.3973337809244795,3.681182861328125,6.8467458089192705,0.06421407063802083,24.733861287434895,18.564860026041668
242.0,12.900670369466146,7.5105031331380205,3.60107421875,6.870269775390625,0.07565816243489583,24.637222290039062,18.45868428548177,14.355977376302084,19.207000732421875,17.114003499348957,7.68280029296875,3.513971964518229,6.937662760416667,0.08900960286458333,19.808451334635418,8.986790974934896
243.0,22.491455078125,7.670084635416667,3.5730997721354165,6.811777750651042,0.095367431640625,18.42180887858073,14.283498128255209,25.98126729329427,26.245752970377605,22.210439046223957,7.428487141927083,3.6983489990234375,6.6814422607421875,0.06930033365885417,9.138743082682291,15.2740478515625
244.0,22.38146464029948,7.4202219645182295,3.6519368489583335,6.771087646484375,0.0705718994140625,12.593587239583334,24.658203125,29.034932454427082,21.213531494140625,15.848795572916666,7.6751708984375,3.490447998046875,7.002512613932292,0.08900960286458333,11.732101440429688,25.302886962890625
245.0,12.6800537109375,7.7362060546875,3.528594970703125,6.9764455159505205,0.087738037109375,19.235610961914062,29.405593872070312,20.25604248046875,8.402506510416666,4.662831624348958,7.4303944905598955,3.6144256591796875,6.726582845052083,0.08455912272135417,22.59508768717448,24.180094401041668
246.0,8.487701416015625,7.352193196614583,3.6646525065104165,6.8162282307942705,0.07375081380208333,24.137496948242188,24.337132771809895,10.822931925455729,10.882695515950521,10.683059692382812,7.5206756591796875,3.6252339680989585,6.9204966227213545,0.1068115234375,23.142496744791668,14.155069986979166
247.0,18.426259358723957,7.6541900634765625,3.5381317138671875,6.9675445556640625,0.118255615234375,22.50226338704427,13.699849446614584,20.267486572265625,24.361928304036457,20.91534932454427,7.6185862223307295,3.601710001627604,6.739298502604167,0.0514984130859375,15.045166015625,9.857177734375
248.0,24.213790893554688,7.429758707682292,3.66973876953125,6.718953450520833,0.1087188720703125,14.563242594401041,18.340428670247395,28.188705444335938,24.988174438476562,20.887374877929688,7.4647267659505205,3.6328633626302085,6.805419921875,0.11189778645833333,7.790883382161458,21.697362263997395
249.0,19.209543863932293,7.6020558675130205,3.5463968912760415,6.9154103597005205,0.1087188720703125,13.844807942708334,28.069814046223957,24.933497111002605,14.941533406575521,10.093053181966146,7.63702392578125,3.482182820638021,6.898244222005208,0.10808308919270833,17.271677652994793,26.257832845052082
250.0,8.469263712565104,7.5689951578776045,3.5985310872395835,6.806691487630208,0.09473164876302083,22.816975911458332,28.303146362304688,14.731725056966146,5.5891672770182295,5.0856272379557295,7.399241129557292,3.6799112955729165,6.748199462890625,0.0743865966796875,23.568471272786457,20.329793294270832
251.0,11.983235677083334,7.467905680338542,3.6144256591796875,6.863911946614583,0.10617574055989583,25.267283121744793,19.033432006835938,12.852350870768229,18.062591552734375,16.938527425130207,7.7686309814453125,3.5114288330078125,6.960550944010417,0.0743865966796875,19.971847534179688,8.909225463867188
252.0,22.511800130208332,7.6821645100911455,3.5909016927083335,6.8511962890625,0.10426839192708333,19.140243530273438,14.009475708007812,25.82232157389323,26.39007568359375,22.782643636067707,7.3808034261067705,3.6684672037760415,6.680806477864583,0.06548563639322917,9.708404541015625,15.583038330078125
253.0,22.869110107421875,7.432301839192708,3.66973876953125,6.78253173828125,0.06548563639322917,12.751261393229166,24.042765299479168,28.839111328125,21.67193094889323,16.74969991048177,7.6363881429036455,3.5457611083984375,6.9853464762369795,0.09981791178385417,11.05499267578125,25.055567423502605
254.0,14.684041341145834,7.708231608072917,3.5196940104166665,6.931304931640625,0.102996826171875,18.786112467447918,29.447555541992188,20.771026611328125,8.936564127604166,5.3234100341796875,7.497151692708333,3.620783487955729,6.70623779296875,0.062306722005208336,22.59063720703125,24.60161844889323
255.0,8.536020914713541,7.321675618489583,3.6792755126953125,6.739298502604167,0.06739298502604167,24.178822835286457,25.012969970703125,9.538014729817709,8.764266967773438,10.091145833333334,7.526397705078125,3.624598185221354,6.8594614664713545,0.08710225423177083,23.76874287923177,14.805475870768229
256.0,18.117904663085938,7.66754150390625,3.5273234049479165,7.015228271484375,0.0705718994140625,23.01343282063802,14.155705769856771,18.691380818684895,23.599624633789062,21.155039469401043,7.6249440511067705,3.56292724609375,6.814320882161458,0.09981791178385417,15.978495279947916,9.532928466796875
257.0,24.636586507161457,7.4367523193359375,3.6303202311197915,6.718953450520833,0.0934600830078125,14.572779337565104,17.560323079427082,27.59997049967448,25.36328633626302,21.469751993815105,7.3986053466796875,3.6226908365885415,6.7755381266276045,0.07756551106770833,7.7063242594401045,21.574656168619793
258.0,20.497639973958332,7.569630940755208,3.5578409830729165,6.884256998697917,0.055948893229166664,13.190587361653646,27.647018432617188,25.81787109375,16.28557840983073,11.469523111979166,7.7266693115234375,3.520329793294271,6.907145182291667,0.07692972819010417,16.16986592610677,26.31378173828125
259.0,8.389790852864584,7.593790690104167,3.6265055338541665,6.8359375,0.0820159912109375,22.279739379882812,28.801600138346355,15.03753662109375,6.32476806640625,4.503885904947917,7.3808034261067705,3.6525726318359375,6.8111419677734375,0.09028116861979167,23.579915364583332,20.888010660807293
260.0,11.906305948893229,7.419586181640625,3.6290486653645835,6.832122802734375,0.07184346516927083,25.068918863932293,20.163853963216145,12.338638305664062,16.5252685546875,16.30719502766927,7.6503753662109375,3.5114288330078125,6.941477457682292,0.09981791178385417,20.805994669596355,9.673436482747396
261.0,21.5301513671875,7.719675699869792,3.585179646809896,6.862640380859375,0.08265177408854167,19.466400146484375,13.498306274414062,24.965286254882812,26.140848795572918,22.076924641927082,7.4367523193359375,3.6786397298177085,6.722768147786458,0.09600321451822917,10.854085286458334,13.780593872070312
262.0,23.291905721028645,7.382710774739583,3.6646525065104165,6.7615509033203125,0.09663899739583333,12.715021769205729,23.397445678710938,29.46917215983073,22.567113240559895,17.457962036132812,7.6503753662109375,3.569920857747396,6.907145182291667,0.062306722005208336,9.852091471354166,24.691263834635418
263.0,14.8773193359375,7.7279408772786455,3.5641988118489585,6.933848063151042,0.08392333984375,17.540613810221355,28.926849365234375,21.799723307291668,9.873072306315104,5.425771077473958,7.527669270833333,3.665288289388021,6.8302154541015625,0.08265177408854167,21.484375,24.78345235188802
264.0,6.5962473551432295,7.4265797932942705,3.658294677734375,6.718953450520833,0.08074442545572917,24.713516235351562,25.384902954101562,11.22283935546875,8.965174357096354,8.136749267578125,7.4825286865234375,3.5730997721354165,6.8162282307942705,0.064849853515625,23.85266621907552,15.639623006184896
265.0,16.898473103841145,7.6325734456380205,3.4999847412109375,6.961822509765625,0.080108642578125,23.752212524414062,14.21356201171875,17.481486002604168,22.86847432454427,20.329793294270832,7.664998372395833,3.54766845703125,6.838480631510417,0.08328755696614583,16.840616861979168,8.46099853515625
266.0,24.023691813151043,7.544199625651042,3.6455790201822915,6.6903432210286455,0.11952718098958333,15.522638956705729,16.97985331217448,27.18353271484375,25.010426839192707,21.570205688476562,7.397969563802083,3.6754608154296875,6.7602793375651045,0.07947285970052083,7.6109568277994795,20.34441630045573
267.0,20.810445149739582,7.4965159098307295,3.570556640625,6.8899790445963545,0.08900960286458333,13.586680094401041,26.95782979329427,26.396433512369793,16.702651977539062,12.587865193684896,7.7330271402994795,3.513336181640625,6.9535573323567705,0.0972747802734375,15.924453735351562,25.966644287109375
268.0,8.694330851236979,7.6300303141276045,3.604888916015625,7.0540110270182295,0.1049041748046875,22.06865946451823,28.428395589192707,15.656153361002604,6.114959716796875,3.810246785481771,7.3057810465494795,3.6869049072265625,6.6992441813151045,0.08837381998697917,23.575464884440105,21.15313212076823
269.0,10.145823160807291,7.442474365234375,3.665924072265625,6.791432698567708,0.08710225423177083,25.197347005208332,20.825703938802082,12.704213460286459,15.986760457356771,14.845530192057291,7.7279408772786455,3.5680135091145835,6.940205891927083,0.102996826171875,21.38201395670573,10.138829549153646
270.0,21.153767903645832,7.6541900634765625,3.5527547200520835,6.895701090494792,0.09409586588541667,19.953409830729168,12.301762898763021,24.46746826171875,25.932947794596355,22.111256917317707,7.419586181640625,3.676732381184896,6.7920684814453125,0.07756551106770833,11.173884073893229,12.1917724609375
271.0,23.308436075846355,7.366180419921875,3.6678314208984375,6.716410319010417,0.06930033365885417,13.261159261067709,21.392822265625,29.256184895833332,23.265838623046875,18.17639668782552,7.5855255126953125,3.550847371419271,6.902058919270833,0.11889139811197917,9.857177734375,23.70452880859375
272.0,15.422821044921875,7.6904296875,3.4999847412109375,6.959279378255208,0.11189778645833333,17.354965209960938,28.788248697916668,22.080739339192707,10.346094767252604,6.1995188395182295,7.587432861328125,3.612518310546875,6.7895253499348955,0.0553131103515625,21.1639404296875,24.968465169270832
273.0,7.5168609619140625,7.3998769124348955,3.6493937174479165,6.730397542317708,0.06739298502604167,23.924509684244793,25.973002115885418,10.774612426757812,8.490244547526041,7.750193277994792,7.4615478515625,3.651301066080729,6.8391164143880205,0.07947285970052083,24.013519287109375,16.548792521158855
274.0,16.373952229817707,7.7088673909505205,3.5343170166015625,6.908416748046875,0.072479248046875,23.256301879882812,15.535354614257812,17.053604125976562,22.371292114257812,19.400914510091145,7.765452067057292,3.5552978515625,6.895701090494792,0.10363260904947917,16.504923502604168,8.625666300455729
275.0,23.745218912760418,7.535298665364583,3.6525726318359375,6.750742594401042,0.08900960286458333,15.741348266601562,16.064961751302082,26.932398478190105,26.294708251953125,21.554311116536457,7.3706309000651045,3.7129720052083335,6.792704264322917,0.09282430013020833,7.411956787109375,19.487380981445312
276.0,21.498998006184895,7.511138916015625,3.6106109619140625,6.867726643880208,0.09600321451822917,12.833913167317709,27.133941650390625,26.727676391601562,17.531077067057293,13.551712036132812,7.6821645100911455,3.53240966796875,6.984710693359375,0.0972747802734375,14.217376708984375,26.357650756835938
277.0,9.737014770507812,7.638295491536458,3.536860148111979,6.8511962890625,0.087738037109375,21.802266438802082,29.074986775716145,16.740163167317707,5.7659149169921875,4.456837972005208,7.3528289794921875,3.7059783935546875,6.740570068359375,0.10808308919270833,23.604075113932293,22.474288940429688
278.0,9.797414143880209,7.3871612548828125,3.6468505859375,6.7793528238932295,0.095367431640625,25.277455647786457,21.593729654947918,11.013666788736979,13.718287150065104,14.2059326171875,7.664998372395833,3.5247802734375,6.9459279378255205,0.0972747802734375,21.26630147298177,11.059443155924479
279.0,20.44232686360677,7.691701253255208,3.5451253255208335,6.9484710693359375,0.08455912272135417,20.687103271484375,13.266881306966146,23.70134989420573,25.670369466145832,21.874745686848957,7.5283050537109375,3.6525726318359375,6.692250569661458,0.07883707682291667,11.873881022135416,11.897404988606771
280.0,23.667653401692707,7.3566436767578125,3.703435262044271,6.693522135416667,0.064849853515625,13.139724731445312,21.068572998046875,29.405593872070312,24.007161458333332,18.84778340657552,7.5270334879557295,3.594080607096354,6.8721771240234375,0.10808308919270833,9.367624918619791,23.813247680664062
281.0,16.33135477701823,7.6580047607421875,3.510157267252604,6.974538167317708,0.10553995768229167,16.647974650065105,28.921763102213543,22.996266682942707,10.961532592773438,7.1430206298828125,7.5728098551432295,3.5762786865234375,6.8569183349609375,0.07502237955729167,20.310719807942707,25.505701700846355
282.0,7.0476531982421875,7.425944010416667,3.692626953125,6.787618001302083,0.08455912272135417,23.65557352701823,26.544570922851562,12.132644653320312,7.4469248453776045,6.272633870442708,7.4634552001953125,3.6334991455078125,6.8149566650390625,0.09218851725260417,24.25702412923177,17.306009928385418
283.0,15.310923258463541,7.5855255126953125,3.550847371419271,6.9382985432942705,0.08074442545572917,23.830413818359375,15.941619873046875,15.408833821614584,21.029154459635418,19.696553548177082,7.6491038004557295,3.566741943359375,6.916046142578125,0.06548563639322917,17.857869466145832,8.866628011067709
284.0,24.19726053873698,7.5677235921223955,3.6099751790364585,7.085164388020833,0.09218851725260417,16.256332397460938,15.2587890625,26.631673177083332,26.442209879557293,22.216796875,7.3973337809244795,3.703435262044271,6.7501068115234375,0.07502237955729167,7.7991485595703125,17.964680989583332
285.0,21.596908569335938,7.4481964111328125,3.613154093424479,6.847381591796875,0.06612141927083333,12.547175089518229,26.021957397460938,27.708689371744793,19.034703572591145,14.169057210286459,7.6643625895182295,3.4891764322916665,6.9217681884765625,0.07883707682291667,13.35906982421875,25.814056396484375
286.0,10.693232218424479,7.6363881429036455,3.552118937174479,6.844838460286458,0.06802876790364583,20.792643229166668,28.81940205891927,17.812728881835938,6.4500172932942705,4.086812337239583,7.366180419921875,3.6907196044921875,6.7017873128255205,0.08519490559895833,23.52460225423177,22.514979044596355
287.0,8.99505615234375,7.3757171630859375,3.658930460611979,6.78253173828125,0.07311503092447917,24.894078572591145,22.41071065266927,10.634104410807291,12.929280598958334,12.562433878580729,7.6084136962890625,3.5184224446614585,6.937662760416667,0.118255615234375,22.318522135416668,11.949539184570312
288.0,19.61517333984375,7.6745351155598955,3.5273234049479165,6.964365641276042,0.07311503092447917,21.384557088216145,13.568242390950521,22.652308146158855,24.982452392578125,21.649678548177082,7.528940836588542,3.66973876953125,6.730397542317708,0.07756551106770833,12.79449462890625,11.020660400390625
289.0,23.767471313476562,7.3973337809244795,3.73077392578125,6.7195892333984375,0.057856241861979164,13.345082600911459,19.823710123697918,29.215494791666668,24.428685506184895,19.194285074869793,7.4850718180338545,3.573735555013021,6.875356038411458,0.07883707682291667,8.370081583658854,22.8729248046875
290.0,17.342249552408855,7.595062255859375,3.5120646158854165,6.946563720703125,0.09282430013020833,16.290028889973957,28.546651204427082,24.16547139485677,12.421290079752604,8.883158365885416,7.6058705647786455,3.5463968912760415,6.8276723225911455,0.0820159912109375,19.767125447591145,26.102701822916668
291.0,7.794698079427083,7.427215576171875,3.6468505859375,6.7068735758463545,0.0972747802734375,23.401260375976562,26.955286661783855,11.999130249023438,6.617228190104167,6.1219533284505205,7.375081380208333,3.674189249674479,6.801605224609375,0.09854634602864583,24.2767333984375,18.42053731282552
292.0,14.242172241210938,7.5295766194661455,3.634770711263021,6.8721771240234375,0.09409586588541667,24.293263753255207,16.824086507161457,15.35797119140625,20.732879638671875,18.860499064127605,7.6592763264973955,3.5196940104166665,6.922403971354167,0.07375081380208333,18.723169962565105,9.009043375651041
293.0,23.067474365234375,7.605234781901042,3.5909016927083335,6.8302154541015625,0.08646647135416667,17.90618896484375,14.628728230794271,25.815963745117188,26.690165201822918,22.092183430989582,7.38525390625,3.6532084147135415,6.730397542317708,0.08900960286458333,8.450826009114584,16.620635986328125
294.0,22.401809692382812,7.4329376220703125,3.631591796875,6.8429311116536455,0.10172526041666667,12.237548828125,25.873819986979168,27.867635091145832,19.853591918945312,15.00701904296875,7.664998372395833,3.491083780924479,6.933848063151042,0.07184346516927083,13.441721598307291,25.107065836588543
295.0,11.524200439453125,7.686614990234375,3.5489400227864585,6.945292154947917,0.054041544596354164,20.73351542154948,28.783798217773438,18.911361694335938,6.8187713623046875,3.7784576416015625,7.414499918619792,3.6684672037760415,6.7208607991536455,0.0858306884765625,23.31097920735677,23.110707600911457
296.0,9.140650431315104,7.3858896891276045,3.708521525065104,6.8429311116536455,0.06739298502604167,25.24121602376302,22.766749064127605,10.770161946614584,11.949539184570312,12.658437093098959,7.5588226318359375,3.527959187825521,6.9586435953776045,0.07311503092447917,22.733688354492188,12.831370035807291
297.0,19.50836181640625,7.65228271484375,3.4879048665364585,6.9433848063151045,0.0972747802734375,22.641499837239582,13.982772827148438,21.591822306315105,24.645487467447918,21.380106608072918,7.567087809244792,3.6226908365885415,6.748199462890625,0.07375081380208333,14.667510986328125,9.932835896809896
298.0,22.137959798177082,7.3820749918619795,3.65447998046875,6.7208607991536455,0.0591278076171875,14.365514119466146,19.289016723632812,29.811859130859375,24.9481201171875,18.938700358072918,7.470448811848958,3.590265909830729,6.9281260172526045,0.07502237955729167,7.9046885172526045,22.86211649576823
299.0,17.693837483723957,7.5817108154296875,3.5552978515625,7.020314534505208,0.0782012939453125,15.177408854166666,28.350830078125,25.296529134114582,14.055887858072916,8.757909138997396,7.6503753662109375,3.540674845377604,6.8594614664713545,0.07502237955729167,18.591562906901043,25.983174641927082
300.0,7.7075958251953125,7.4920654296875,3.6214192708333335,6.712595621744792,0.061670939127604164,23.035685221354168,27.173360188802082,13.601303100585938,6.2821706136067705,5.4276784261067705,7.3769887288411455,3.6646525065104165,6.8251291910807295,0.11698404947916667,24.176915486653645,18.86749267578125
301.0,12.622833251953125,7.537841796875,3.605524698893229,6.8817138671875,0.0820159912109375,24.386088053385418,17.143885294596355,14.699300130208334,19.48102315266927,17.492294311523438,7.6897939046223955,3.5158793131510415,6.932576497395833,0.09028116861979167,19.042332967122395,9.126663208007812
302.0,22.371292114257812,7.6262156168619795,3.5680135091145835,6.832122802734375,0.10172526041666667,19.084930419921875,14.022191365559896,25.625864664713543,26.322046915690105,22.017796834309895,7.3935190836588545,3.70025634765625,6.744384765625,0.09282430013020833,8.902231852213541,15.977859497070312
303.0,22.240320841471355,7.5130462646484375,3.6633809407552085,6.8442026774088545,0.09600321451822917,12.27569580078125,24.710973103841145,28.058369954427082,20.288467407226562,15.398661295572916,7.7164967854817705,3.459294637044271,6.96563720703125,0.06930033365885417,12.066523234049479,25.231679280598957
304.0,12.005488077799479,7.7075958251953125,3.512700398763021,6.9853464762369795,0.09218851725260417,19.835154215494793,29.550552368164062,19.025166829427082,6.8861643473307295,5.176544189453125,7.4723561604817705,3.82232666015625,6.6763559977213545,0.1277923583984375,22.801717122395832,23.99126688639323
305.0,8.161544799804688,7.356007893880208,3.699620564778646,6.7513783772786455,0.07947285970052083,25.03522237141927,23.726145426432293,10.464350382486979,11.027654012044271,11.1846923828125,7.5511932373046875,3.563563028971354,6.8670908610026045,0.09918212890625,22.86847432454427,13.43536376953125
306.0,19.006729125976562,7.6452891031901045,3.5076141357421875,6.9739023844401045,0.0705718994140625,22.533416748046875,14.265060424804688,20.26812235514323,24.237314860026043,21.492640177408855,7.562001546223958,3.612518310546875,6.7513783772786455,0.07883707682291667,15.029271443684896,10.040918986002604
307.0,23.811976114908855,7.46917724609375,3.704706827799479,6.6954294840494795,0.1087188720703125,14.471054077148438,18.61890157063802,29.073715209960938,25.043487548828125,20.32025655110677,7.456461588541667,3.646214803059896,6.8683624267578125,0.1068115234375,7.74383544921875,20.692825317382812
308.0,18.260955810546875,7.572174072265625,3.5527547200520835,6.9840749104817705,0.09282430013020833,14.530817667643229,28.105417887369793,24.53931172688802,14.519373575846354,10.372161865234375,7.6529184977213545,3.5641988118489585,6.9192250569661455,0.08138020833333333,17.394383748372395,26.288350423177082
309.0,8.404413859049479,7.5473785400390625,3.608067830403646,6.7132314046223955,0.1068115234375,22.66693115234375,27.500152587890625,13.906478881835938,5.6629180908203125,5.08880615234375,7.43865966796875,3.7206013997395835,6.7818959554036455,0.10999043782552083,24.105072021484375,19.381205240885418
310.0,12.475967407226562,7.48443603515625,3.615697224934896,6.909688313802083,0.087738037109375,25.09752909342448,18.183390299479168,14.085133870442709,18.501917521158855,17.086029052734375,7.668813069661458,3.50189208984375,6.8963368733723955,0.0820159912109375,20.563761393229168,9.881337483723959
311.0,22.85448710123698,7.656097412109375,3.559112548828125,6.8632761637369795,0.054677327473958336,18.74097188313802,13.9007568359375,25.403976440429688,26.962916056315105,22.988637288411457,7.3960622151692705,3.700892130533854,6.6967010498046875,0.1010894775390625,9.244283040364584,15.138626098632812
312.0,23.04522196451823,7.3998769124348955,3.6640167236328125,6.809234619140625,0.06993611653645833,11.981964111328125,24.075826009114582,28.814951578776043,21.324793497721355,16.433080037434895,7.642110188802083,3.372828165690104,6.932576497395833,0.0762939453125,10.943730672200521,25.456746419270832
313.0,12.516657511393229,7.694244384765625,3.5400390625,6.959279378255208,0.095367431640625,18.769582112630207,29.761632283528645,20.196914672851562,7.8245798746744795,4.3010711669921875,7.48443603515625,3.665288289388021,6.746927897135417,0.11316935221354167,22.317886352539062,24.611155192057293
314.0,7.2701772054036455,7.4075063069661455,3.707249959309896,6.7539215087890625,0.07184346516927083,25.068918863932293,24.600982666015625,10.67352294921875,9.983062744140625,9.596506754557291,7.479349772135417,3.7867228190104165,6.884256998697917,0.095367431640625,23.180007934570312,13.833999633789062
315.0,17.902374267578125,7.662455240885417,3.5184224446614585,7.6147715250651045,0.09600321451822917,22.607803344726562,14.174779256184896,19.503275553385418,24.658203125,21.235148111979168,7.60650634765625,3.6525726318359375,6.7615509033203125,0.07756551106770833,15.369415283203125,8.840560913085938
316.0,23.670196533203125,7.4303944905598955,3.6869049072265625,6.692250569661458,0.09028116861979167,14.367421468098959,17.431259155273438,29.518763224283855,26.304880777994793,20.714441935221355,7.4342091878255205,3.697077433268229,6.7895253499348955,0.0896453857421875,7.114410400390625,21.132151285807293
317.0,18.908182779947918,7.550557454427083,3.5915374755859375,6.9599151611328125,0.08138020833333333,13.531366984049479,27.47662862141927,26.498158772786457,16.242345174153645,9.908040364583334,7.6872507731119795,3.527959187825521,6.895701090494792,0.11507670084635417,17.57494608561198,26.510874430338543
318.0,8.738199869791666,7.5486501057942705,3.6303202311197915,6.776173909505208,0.09409586588541667,22.186915079752605,27.864456176757812,14.720280965169271,6.1855316162109375,4.2908986409505205,7.340749104817708,3.7059783935546875,6.769816080729167,0.06612141927083333,24.57110087076823,20.30499776204427
319.0,11.14654541015625,7.4431101481119795,3.597895304361979,6.8670908610026045,0.09028116861979167,25.472005208333332,18.519083658854168,12.418111165364584,16.886393229166668,15.824000040690104,7.7114105224609375,3.5247802734375,6.982167561848958,0.07565816243489583,20.634969075520832,9.583791097005209
320.0,22.192637125651043,7.673899332682292,3.5387674967447915,6.9243113199869795,0.07502237955729167,18.983840942382812,13.723373413085938,24.659474690755207,26.56237284342448,22.3846435546875,7.381439208984375,3.6595662434895835,6.7183176676432295,0.09981791178385417,10.538736979166666,13.996124267578125
321.0,22.70062764485677,7.372538248697917,3.6602020263671875,6.470998128255208,0.0972747802734375,12.407302856445312,22.81506856282552,29.160181681315105,22.159576416015625,16.80437723795573,7.5550079345703125,3.82232666015625,7.0260365804036455,0.1010894775390625,10.164896647135416,25.02759297688802
322.0,13.650894165039062,7.6751708984375,3.5120646158854165,7.01141357421875,0.09473164876302083,18.669764200846355,29.141743977864582,21.512985229492188,9.752909342447916,5.474090576171875,7.4977874755859375,3.5909016927083335,6.7094167073567705,0.0934600830078125,21.994908650716145,24.69189961751302
323.0,7.336934407552083,7.3337554931640625,3.68499755859375,6.694793701171875,0.06866455078125,25.273640950520832,24.691263834635418,10.840098063151041,9.024937947591146,8.837381998697916,7.51495361328125,3.6265055338541665,6.8817138671875,0.09028116861979167,23.624420166015625,14.740626017252604
324.0,17.263412475585938,7.6643625895182295,3.527959187825521,6.949106852213542,0.10363260904947917,23.560841878255207,14.779408772786459,18.011093139648438,23.335774739583332,20.276387532552082,7.625579833984375,3.6150614420572915,6.79779052734375,0.0782012939453125,16.469955444335938,8.719762166341146
325.0,23.733139038085938,7.4558258056640625,3.642400105794271,6.7901611328125,0.11126200358072917,16.201019287109375,16.761144002278645,28.324127197265625,25.70025126139323,20.538330078125,7.476806640625,3.6563873291015625,6.805419921875,0.07502237955729167,8.045196533203125,20.378748575846355
326.0,20.478566487630207,7.625579833984375,3.5756429036458335,6.9192250569661455,0.09600321451822917,13.917922973632812,29.180526733398438,26.353200276692707,17.271677652994793,11.519114176432291,7.7101389567057295,3.531773885091146,6.9344838460286455,0.0972747802734375,0.19709269205729166,27.357737223307293
327.0,9.677251180013021,7.638295491536458,3.6106109619140625,6.7996978759765625,0.1277923583984375,29.515584309895832,29.069900512695312,15.638351440429688,6.338755289713542,3.77655029296875,7.391611735026042,3.708521525065104,6.750742594401042,0.09282430013020833,28.535842895507812,21.811803181966145
328.0,10.768254597981771,7.4545542399088545,3.707249959309896,6.833394368489583,0.0934600830078125,26.874542236328125,19.588470458984375,12.440363566080729,15.784581502278646,15.725453694661459,7.694244384765625,3.5680135091145835,7.0362091064453125,0.11380513509114583,21.898269653320312,9.951273600260416
329.0,21.10735575358073,7.7304840087890625,3.5883585611979165,6.9471995035807295,0.0762939453125,21.210988362630207,13.408025105794271,24.207433064778645,25.529861450195312,22.267659505208332,7.4494679768880205,3.680547078450521,6.7106882731119795,0.09091695149739583,11.821746826171875,13.266881306966146
330.0,23.199081420898438,7.4024200439453125,3.6760965983072915,6.7996978759765625,0.0820159912109375,12.690862019856771,22.106170654296875,29.137293497721355,22.435506184895832,17.930984497070312,7.6096852620442705,3.581364949544271,6.9090525309244795,0.08392333984375,9.710947672526041,23.916244506835938
331.0,14.451980590820312,7.7826182047526045,3.5222371419270835,7.0006052652994795,0.06930033365885417,18.553415934244793,28.66045633951823,21.825154622395832,9.356816609700521,5.9757232666015625,7.5766245524088545,3.643671671549479,6.8136850992838545,0.11316935221354167,21.415074666341145,24.675369262695312
332.0,7.158915201822917,7.3935190836588545,3.68499755859375,6.7437489827473955,0.11571248372395833,23.810704549153645,24.920145670572918,9.742101033528646,7.6859792073567705,8.296330769856771,7.486979166666667,3.6366780598958335,6.8810780843098955,0.09028116861979167,23.505528767903645,15.416463216145834
333.0,15.325546264648438,7.677714029947917,3.5400390625,7.0743560791015625,0.11507670084635417,22.284189860026043,13.523101806640625,15.385945638020834,21.680196126302082,19.404093424479168,7.6745351155598955,3.604888916015625,6.885528564453125,0.10363260904947917,16.66704813639323,8.092880249023438
334.0,22.181193033854168,7.5486501057942705,3.6799112955729165,6.7297617594401045,0.12461344401041667,15.220006306966146,16.09484354654948,27.276992797851562,26.110331217447918,20.549774169921875,7.4329376220703125,3.7129720052083335,6.85882568359375,0.06103515625,6.8817138671875,19.21526590983073
335.0,20.040512084960938,7.559458414713542,3.627141316731771,6.9497426350911455,0.08837381998697917,13.006846110026041,26.852925618489582,27.149200439453125,17.609278361002605,12.216567993164062,7.752736409505208,3.5794576009114585,7.016499837239583,0.09091695149739583,15.118916829427084,25.817235310872395
336.0,10.726292928059896,7.694244384765625,3.628412882486979,6.8798065185546875,0.08519490559895833,21.361668904622395,29.155731201171875,17.096201578776043,6.6801706949869795,4.536946614583333,7.428487141927083,3.722508748372396,6.7704518636067705,0.0820159912109375,24.16229248046875,22.21361796061198
337.0,10.549545288085938,7.4774424235026045,3.731409708658854,6.8225860595703125,0.0896453857421875,25.651295979817707,21.222432454427082,12.179056803385416,15.188852945963541,14.918645222981771,7.7330271402994795,3.5909016927083335,7.016499837239583,0.08328755696614583,18.273035685221355,10.477701822916666
338.0,21.509806315104168,7.8360239664713545,3.5858154296875,6.936391194661458,0.08138020833333333,22.497812906901043,13.846715291341146,24.397532145182293,26.617685953776043,22.034327189127605,7.5232187906901045,3.691991170247396,6.769816080729167,0.08900960286458333,13.832728068033854,12.721379597981771
339.0,23.61615498860677,7.4520111083984375,3.7333170572916665,6.805419921875,0.09282430013020833,13.293584187825521,21.224339803059895,28.680165608723957,23.2086181640625,18.320719401041668,7.579803466796875,3.563563028971354,6.9433848063151045,0.0782012939453125,9.546279907226562,23.519515991210938
340.0,15.528361002604166,7.726033528645833,3.5419464111328125,7.0374806722005205,0.08837381998697917,16.2200927734375,27.993520100911457,21.745045979817707,10.218938191731771,6.3877105712890625,7.66754150390625,3.6519368489583335,6.838480631510417,0.1163482666015625,20.147959391276043,25.45928955078125
341.0,7.119496663411458,7.4570973714192705,3.7078857421875,6.7946116129557295,0.087738037109375,24.361928304036457,25.437037150065105,10.844548543294271,7.8334808349609375,7.0184071858723955,7.4736277262369795,3.6786397298177085,6.8887074788411455,0.09791056315104167,23.993174235026043,16.524632771809895
342.0,15.414555867513021,7.6325734456380205,3.551483154296875,6.9561004638671875,0.0762939453125,25.05811055501302,17.97803243001302,20.19818623860677,25.09625752766927,19.575119018554688,7.6885223388671875,3.59344482421875,6.941477457682292,0.1010894775390625,18.590927124023438,10.199228922526041
343.0,27.238210042317707,7.6630910237630205,3.684361775716146,6.7818959554036455,0.072479248046875,19.64124043782552,18.220901489257812,29.8309326171875,26.68444315592448,25.748570760091145,7.49969482421875,3.666559855143229,6.8009694417317705,0.09600321451822917,9.575525919596354,19.769668579101562
344.0,22.579193115234375,7.489522298177083,3.6220550537109375,7.236480712890625,0.095367431640625,11.381149291992188,24.60161844889323,24.8260498046875,16.425450642903645,14.223734537760416,7.699330647786458,3.513971964518229,6.9319407145182295,0.09473164876302083,12.971878051757812,24.484634399414062
345.0,9.362538655598959,7.7037811279296875,3.60107421875,6.827036539713542,0.06993611653645833,20.486831665039062,27.83203125,16.56786600748698,5.9706370035807295,2.90679931640625,7.460276285807292,3.7384033203125,6.712595621744792,0.10999043782552083,23.30334981282552,21.5911865234375
346.0,8.951822916666666,7.448832194010417,3.704071044921875,6.539662679036458,0.0934600830078125,25.114059448242188,20.79327901204427,11.378606160481771,14.28985595703125,13.2598876953125,7.626851399739583,3.521601359049479,6.9891611735026045,0.091552734375,22.064844767252605,11.556625366210938
347.0,22.1405029296875,7.7571868896484375,3.525416056315104,6.928761800130208,0.07375081380208333,21.03741963704427,13.866424560546875,21.024703979492188,24.83367919921875,22.8729248046875,7.577260335286458,3.6633809407552085,6.722768147786458,0.08074442545572917,13.467788696289062,11.391321818033854
348.0,25.390625,7.4036916097005205,3.674189249674479,6.7437489827473955,0.07120768229166667,12.8326416015625,20.416895548502605,28.08062235514323,23.374557495117188,19.414265950520832,7.5422922770182295,3.5845438639322915,6.8721771240234375,0.057856241861979164,8.598963419596354,23.099263509114582
349.0,16.001383463541668,7.65228271484375,3.5235087076822915,6.9789886474609375,0.091552734375,16.35424296061198,28.41631571451823,22.448221842447918,10.892232259114584,7.7762603759765625,7.661183675130208,3.482818603515625,6.821950276692708,0.11571248372395833,20.036697387695312,25.403340657552082
350.0,7.72857666015625,7.479349772135417,3.6519368489583335,6.6941579182942705,0.11444091796875,24.168650309244793,26.461283365885418,11.554718017578125,6.961822509765625,6.58416748046875,7.4532826741536455,3.658930460611979,6.949106852213542,0.087738037109375,23.911794026692707,17.566680908203125
351.0,14.078776041666666,7.62939453125,3.5457611083984375,6.9039662679036455,0.09282430013020833,23.96074930826823,16.731897989908855,16.239166259765625,21.250406901041668,18.720626831054688,7.733662923177083,3.955205281575521,6.902058919270833,0.08455912272135417,18.303553263346355,8.829116821289062
352.0,22.441864013671875,7.625579833984375,3.6163330078125,6.7755381266276045,0.06930033365885417,17.809549967447918,15.238444010416666,27.886708577473957,26.306788126627605,21.990458170572918,7.4354807535807295,3.7066141764322915,6.755828857421875,0.072479248046875,8.180618286132812,17.27612813313802
353.0,21.5301513671875,7.490793863932292,3.643035888671875,6.867726643880208,0.10935465494791667,12.619654337565104,25.885899861653645,27.849197387695312,19.592920939127605,14.3280029296875,7.6961517333984375,3.521601359049479,6.952921549479167,0.0972747802734375,13.5650634765625,25.803248087565105
354.0,11.440912882486979,7.7444712320963545,3.5616556803385415,6.900787353515625,0.0896453857421875,21.010080973307293,29.303232828776043,18.407185872395832,6.186167399088542,4.57763671875,7.489522298177083,3.6869049072265625,6.7208607991536455,0.1125335693359375,23.502349853515625,22.986094156901043
355.0,8.528391520182291,7.3642730712890625,3.681182861328125,6.778717041015625,0.09282430013020833,24.869918823242188,21.766026814778645,11.286417643229166,13.196309407552084,12.493133544921875,7.7228546142578125,3.5463968912760415,6.927490234375,0.08074442545572917,22.689183553059895,12.315114339192709
356.0,20.42833964029948,7.71331787109375,3.520329793294271,6.908416748046875,0.0972747802734375,21.879831949869793,14.001846313476562,22.294362386067707,25.934855143229168,22.221883138020832,7.550557454427083,3.6290486653645835,6.535847981770833,0.09473164876302083,13.345082600911459,11.245091756184896
357.0,24.329503377278645,7.40814208984375,3.676732381184896,6.720225016276042,0.09282430013020833,0.23778279622395834,20.900726318359375,28.439839680989582,24.248758951822918,19.698460896809895,7.5181325276692705,3.5692850748697915,6.899515787760417,0.07947285970052083,20.081202189127605,23.542404174804688
358.0,17.38293965657552,7.609049479166667,3.5692850748697915,6.977081298828125,0.0820159912109375,20.90771993001302,29.198328653971355,23.96837870279948,12.366612752278646,9.013493855794271,7.6541900634765625,3.6036173502604165,6.8442026774088545,0.087738037109375,22.281646728515625,26.303609212239582
359.0,7.839202880859375,7.5575510660807295,3.6144256591796875,6.7513783772786455,0.09663899739583333,24.93731180826823,27.060190836588543,11.846542358398438,6.201426188151042,6.216684977213542,7.441202799479167,3.6481221516927085,6.814320882161458,0.09409586588541667,24.627049763997395,18.462498982747395
360.0,13.791402180989584,7.5677235921223955,3.5680135091145835,6.8785349527994795,0.07565816243489583,24.88390604654948,17.35369364420573,15.026092529296875,20.212809244791668,18.614451090494793,7.6904296875,3.5146077473958335,6.9166819254557295,0.09663899739583333,19.282023111979168,8.869806925455729
361.0,22.789637247721355,7.589975992838542,3.658294677734375,6.792704264322917,0.08138020833333333,19.12244160970052,14.546712239583334,26.750564575195312,26.006698608398438,22.031148274739582,7.3464711507161455,3.6799112955729165,6.760915120442708,0.08710225423177083,9.248097737630209,16.600290934244793
362.0,21.600723266601562,7.43865966796875,3.681182861328125,6.8206787109375,0.0762939453125,13.147354125976562,25.25774637858073,27.935028076171875,20.269393920898438,14.787673950195312,7.6808929443359375,3.4955342610677085,6.9166819254557295,0.06739298502604167,12.936909993489584,25.45483907063802
363.0,12.136459350585938,7.7342987060546875,3.543217976888021,6.8734486897786455,0.07120768229166667,19.533793131510418,29.099146525065105,19.49755350748698,5.6527455647786455,4.558563232421875,7.457733154296875,3.6824544270833335,6.708780924479167,0.10617574055989583,23.169199625651043,23.828506469726562
364.0,8.532206217447916,7.4062347412109375,3.695805867513021,6.7844390869140625,0.08074442545572917,25.16937255859375,22.229512532552082,10.412851969401041,11.698404947916666,11.663436889648438,7.5702667236328125,3.5533905029296875,6.9090525309244795,0.11952718098958333,22.588729858398438,13.232549031575521
365.0,19.095102945963543,7.696787516276042,3.5298665364583335,6.9637298583984375,0.08455912272135417,21.722157796223957,13.668696085611979,20.53387959798177,24.717966715494793,21.18682861328125,7.612864176432292,3.651301066080729,6.7323048909505205,0.06802876790364583,13.781229654947916,10.379791259765625
366.0,24.215062459309895,7.354736328125,3.704706827799479,6.6725413004557295,0.08455912272135417,13.521194458007812,19.078572591145832,29.113133748372395,24.76056416829427,19.896189371744793,7.4838002522786455,3.5998026529947915,6.907145182291667,0.0896453857421875,6.951649983723958,22.530237833658855
367.0,18.04351806640625,7.6541900634765625,3.5120646158854165,6.956736246744792,0.11444091796875,15.090306599934896,28.304417928059895,24.936676025390625,13.875961303710938,9.551366170247396,7.7508290608723955,3.533045450846354,6.9319407145182295,0.06802876790364583,18.613815307617188,26.04357401529948
368.0,7.3973337809244795,7.5511932373046875,3.613154093424479,6.7145029703776045,0.06930033365885417,23.700714111328125,27.197519938151043,13.201395670572916,6.2255859375,3.9838155110677085,7.4062347412109375,3.6684672037760415,6.7729949951171875,0.09854634602864583,23.896535237630207,18.923441569010418
369.0,15.143076578776041,7.5295766194661455,3.6036173502604165,6.9154103597005205,0.0782012939453125,23.921966552734375,17.841339111328125,12.554168701171875,18.132527669270832,18.77276102701823,7.778167724609375,3.509521484375,6.9573720296223955,0.09409586588541667,19.26422119140625,8.908589680989584
370.0,23.248672485351562,7.626851399739583,3.582000732421875,6.799062093098958,0.10744730631510417,18.509546915690105,14.184951782226562,25.887807210286457,25.885264078776043,22.603352864583332,7.367451985677083,3.719965616861979,6.7145029703776045,0.09282430013020833,9.649912516276041,16.183853149414062
371.0,22.795359293619793,7.4418385823567705,3.708521525065104,6.791432698567708,0.09854634602864583,11.90185546875,24.70715840657552,27.314503987630207,20.364125569661457,15.689214070638021,7.628122965494792,3.5336812337239585,6.9802602132161455,0.08710225423177083,11.650721232096354,25.13567606608073
372.0,13.113021850585938,7.647196451822917,3.512700398763021,6.9281260172526045,0.13033548990885416,18.538157145182293,29.424031575520832,19.732157389322918,7.3210398356119795,4.9673716227213545,7.464090983072917,3.6684672037760415,6.741841634114583,0.0743865966796875,22.735595703125,23.766835530598957
373.0,7.9148610432942705,7.3820749918619795,3.716150919596354,6.749471028645833,0.095367431640625,24.692535400390625,23.235321044921875,10.887781778971354,11.031468709309896,10.889689127604166,7.551829020182292,3.567377726236979,6.9332122802734375,0.102996826171875,22.790273030598957,13.851801554361979
374.0,18.86304219563802,7.687886555989583,3.529230753580729,6.894429524739583,0.08519490559895833,22.164662679036457,14.161427815755209,19.968032836914062,24.483998616536457,20.932515462239582,7.625579833984375,3.6570231119791665,6.7526499430338545,0.1049041748046875,14.423370361328125,9.885787963867188
375.0,23.73186747233073,7.447560628255208,3.689448038736979,6.676991780598958,0.0591278076171875,14.332453409830729,17.632166544596355,28.858184814453125,25.21959940592448,20.520528157552082,7.4774424235026045,3.6296844482421875,6.9637298583984375,0.080108642578125,7.6224009195963545,22.15131123860677
376.0,17.580032348632812,7.5753529866536455,3.5381317138671875,6.9739023844401045,0.1068115234375,13.89312744140625,27.991612752278645,26.128133138020832,14.667510986328125,10.039011637369791,7.6605478922526045,3.5349527994791665,6.884256998697917,0.06739298502604167,17.528533935546875,26.14148457845052
377.0,9.135564168294271,7.565816243489583,3.6468505859375,6.7234039306640625,0.08710225423177083,23.118336995442707,27.774810791015625,13.621012369791666,6.244659423828125,5.527496337890625,7.424672444661458,3.594080607096354,6.766001383463542,0.09918212890625,23.729324340820312,19.80145772298177
378.0,12.704849243164062,7.4812571207682295,3.620147705078125,6.9141387939453125,0.11507670084635417,23.999532063802082,18.77276102701823,12.201309204101562,18.079121907552082,17.29138692220052,7.686614990234375,3.5037994384765625,6.938934326171875,0.07883707682291667,19.36022440592448,8.9111328125
379.0,22.020975748697918,7.7139536539713545,3.573735555013021,6.837209065755208,0.08646647135416667,18.777211507161457,14.076868693033854,25.768280029296875,26.758829752604168,21.731058756510418,7.4462890625,3.6341349283854165,6.722768147786458,0.09663899739583333,9.175618489583334,14.859517415364584
380.0,22.644678751627605,7.401784261067708,3.6869049072265625,6.8353017171223955,0.09600321451822917,12.102762858072916,24.168014526367188,28.657277425130207,21.018346150716145,15.910466512044271,7.6592763264973955,3.5273234049479165,6.918589274088542,0.0820159912109375,10.958353678385416,24.98626708984375
381.0,12.788772583007812,7.7056884765625,3.5228729248046875,6.9357554117838545,0.08900960286458333,18.026987711588543,29.071807861328125,20.14923095703125,8.295059204101562,4.856109619140625,7.5906117757161455,3.6493937174479165,6.73675537109375,0.12461344401041667,22.543589274088543,24.275461832682293
382.0,7.22503662109375,7.4189503987630205,3.7027994791666665,6.766001383463542,0.07311503092447917,24.84448750813802,24.054845174153645,10.882695515950521,10.058085123697916,10.041554768880209,7.5283050537109375,3.5641988118489585,6.876627604166667,0.06357828776041667,23.340861002604168,14.757156372070312
383.0,18.496195475260418,7.7215830485026045,3.533045450846354,6.977081298828125,0.07947285970052083,22.496541341145832,14.6636962890625,19.51917012532552,24.727503458658855,20.743052164713543,7.680257161458333,3.611882527669271,6.8289438883463545,0.09663899739583333,15.263875325520834,9.602864583333334
384.0,23.138046264648438,7.5257619222005205,3.708521525065104,6.6814422607421875,0.09600321451822917,13.761520385742188,17.374674479166668,28.734842936197918,25.55084228515625,20.481109619140625,7.4291229248046875,3.623326619466146,6.84356689453125,0.0705718994140625,7.0273081461588545,20.816802978515625
385.0,19.028981526692707,7.5651804606119795,3.5311381022135415,6.9128672281901045,0.102996826171875,13.807932535807291,26.752471923828125,25.444666544596355,15.770594278971354,10.828018188476562,7.6630910237630205,3.4993489583333335,7.0145924886067705,0.095367431640625,16.846974690755207,25.868733723958332
386.0,8.607864379882812,7.6007843017578125,3.585179646809896,6.7653656005859375,0.06548563639322917,22.808074951171875,28.261184692382812,14.558156331380209,6.314595540364583,4.444122314453125,7.3833465576171875,3.6830902099609375,6.7717234293619795,0.10426839192708333,23.682276407877605,21.09527587890625
387.0,11.525472005208334,7.485707600911458,3.6525726318359375,6.8391164143880205,0.11126200358072917,24.21124776204427,19.353866577148438,12.789408365885416,17.398834228515625,16.45660400390625,7.653554280598958,3.505071004231771,6.9395701090494795,0.07311503092447917,20.036697387695312,9.143829345703125
388.0,21.810531616210938,7.6516469319661455,3.5463968912760415,6.827036539713542,0.06866455078125,19.392649332682293,13.228098551432291,25.344212849934895,25.911331176757812,22.294998168945312,7.4005126953125,3.7015279134114585,6.683349609375,0.0934600830078125,10.118484497070312,13.907750447591146
389.0,23.143768310546875,7.4253082275390625,3.665924072265625,6.763458251953125,0.09028116861979167,12.760798136393229,23.316065470377605,28.649012247721355,21.646499633789062,17.070770263671875,7.5740814208984375,3.5266876220703125,6.991068522135417,0.07184346516927083,10.660807291666666,24.766921997070312
390.0,14.882405598958334,7.6834360758463545,3.4968058268229165,6.921132405598958,0.08138020833333333,17.59020487467448,28.731664021809895,20.394643147786457,8.70513916015625,5.316416422526042,7.5473785400390625,3.6379496256510415,6.8327585856119795,0.09600321451822917,22.127787272135418,24.369557698567707
391.0,7.3502858479817705,7.36236572265625,3.699620564778646,6.735483805338542,0.09854634602864583,24.908065795898438,24.581273396809895,10.790506998697916,9.089152018229166,9.410222371419271,7.512410481770833,3.5877227783203125,6.977081298828125,0.08646647135416667,23.489634195963543,15.157063802083334
392.0,18.06640625,7.6452891031901045,3.520965576171875,7.0145924886067705,0.080108642578125,22.8729248046875,14.872868855794271,16.890207926432293,22.870381673177082,21.160125732421875,7.65228271484375,3.5915374755859375,6.8823496500651045,0.07375081380208333,16.083399454752605,9.137471516927084
393.0,24.38672383626302,7.4558258056640625,3.689448038736979,6.7259470621744795,0.08328755696614583,15.134811401367188,17.752329508463543,27.758280436197918,25.552113850911457,21.089553833007812,7.389068603515625,3.643671671549479,6.771087646484375,0.09028116861979167,7.709503173828125,21.094004313151043
394.0,19.983927408854168,7.503509521484375,3.5998026529947915,6.9650014241536455,0.09028116861979167,14.280319213867188,26.97308858235677,26.009877522786457,16.471227010091145,11.760075887044271,7.6974232991536455,3.525416056315104,6.9395701090494795,0.0629425048828125,16.34661356608073,25.479634602864582
