,Time,S1_D1_Red,S2_D2_Red,S3_D3_Red,S4_D4_Red,S5_D5_Red,S6_D6_Red,S7_D7_Red,S8_D8_Red,S1_D1_Ir,S2_D2_Ir,S3_D3_Ir,S4_D4_Ir,S5_D5_Ir,S6_D6_Ir,S7_D7_Ir,S8_D8_Ir
0,811.0,0.005086263020833333,0.22125244140625,1.1685689290364583,0.911712646484375,3.3124287923177085,487.51068115234375,624.9396006266276,406.67470296223956,264.37123616536456,0.09854634602864583,1244.7916666666667,1.262664794921875,0.835418701171875,3.365198771158854,326.36133829752606,409.7302754720052
1,812.0,389.67641194661456,3.7587483723958335,1.4146169026692708,0.5372365315755209,3.3518473307291665,183.44497680664062,238.60677083333334,164.37276204427084,112.86862691243489,261.4053090413411,3.7714640299479165,1.3497670491536458,0.7769266764322916,3.3931732177734375,120.09239196777344,155.5945078531901
2,813.0,165.78165690104166,3.959019978841146,1.1800130208333333,0.759124755859375,3.173192342122396,72.86961873372395,99.76387023925781,82.25758870442708,66.71524047851562,117.99558003743489,4.0518442789713545,1.1679331461588542,0.7216135660807291,3.631591796875,46.19471232096354,71.09514872233073
3,814.0,82.72679646809895,3.9189656575520835,1.3001759847005208,0.865936279296875,3.306706746419271,40.6036376953125,59.29374694824219,56.37995402018229,39.24751281738281,55.11792500813802,4.0798187255859375,1.0439554850260417,0.9199778238932291,3.287633260091146,33.0956776936849,50.77298482259115
4,815.0,41.492462158203125,4.1243235270182295,1.3116200764973958,0.8824666341145834,3.4421284993489585,39.63279724121094,52.82783508300781,35.28722127278646,23.73504638671875,30.94037373860677,4.2552947998046875,1.2270609537760417,0.7470448811848959,3.341039021809896,36.92436218261719,41.57257080078125
5,816.0,31.766891479492188,3.940582275390625,1.369476318359375,0.63323974609375,3.4319559733072915,41.31126403808594,40.476481119791664,30.117034912109375,26.627222696940105,28.917312622070312,4.049936930338542,1.5303293863932292,0.9504954020182291,3.280003865559896,37.747701009114586,27.01123555501302
6,817.0,35.495758056640625,3.964106241861979,1.2690226236979167,0.6313323974609375,3.310521443684896,36.43035888671875,32.88141886393229,35.242716471354164,35.81364949544271,35.877227783203125,4.060109456380208,1.2378692626953125,0.8207956949869791,3.3626556396484375,25.15729268391927,27.02013651529948
7,818.0,42.24268595377604,4.0645599365234375,1.4921824137369792,0.6268819173177084,3.5190582275390625,27.892430623372395,35.73163350423177,44.7228749593099,39.845784505208336,35.45443216959635,3.7562052408854165,1.3033548990885417,0.9581247965494791,3.394444783528646,23.868560791015625,34.12183125813802
8,819.0,33.657073974609375,3.82232666015625,1.1927286783854167,0.9225209554036459,3.353118896484375,31.362533569335938,43.52378845214844,39.180755615234375,23.64031473795573,23.305257161458332,4.107157389322917,1.3682047526041667,1.0496775309244792,3.376007080078125,30.146280924479168,41.147867838541664
9,820.0,28.219223022460938,4.0314992268880205,1.2925465901692708,0.9098052978515625,3.5451253255208335,35.51673889160156,43.240865071614586,27.879079182942707,23.040771484375,24.387359619140625,3.887812296549479,1.2620290120442708,0.743865966796875,3.3734639485677085,36.53780619303385,30.460357666015625
10,821.0,30.335108439127605,4.0283203125,1.3058980305989583,0.8722941080729166,3.246307373046875,37.82971700032552,31.97034200032552,30.420303344726562,30.388514200846355,30.464808146158855,4.23431396484375,1.2505849202473958,0.8417765299479166,3.2958984375,29.59760030110677,25.599161783854168
11,822.0,37.89647420247396,4.220326741536458,1.3535817464192708,0.8722941080729166,3.4580230712890625,30.553181966145832,33.20884704589844,39.637247721354164,40.9704844156901,37.2765858968099,4.019419352213542,1.2639363606770833,0.9059906005859375,3.5769144694010415,22.862752278645832,30.101776123046875
12,823.0,39.43443298339844,3.673553466796875,1.6473134358723958,0.766754150390625,3.489812215169271,33.14336140950521,39.52217102050781,43.5791015625,30.752817789713543,28.643290201822918,4.296620686848958,1.4890034993489583,0.8436838785807291,3.3505757649739585,29.02539571126302,39.18902079264323
13,824.0,27.364730834960938,4.194895426432292,1.1965433756510417,0.8347829182942709,3.314971923828125,36.196390787760414,46.05801900227865,31.239827473958332,21.953582763671875,22.684097290039062,4.11224365234375,1.4368693033854167,0.8703867594401041,3.334681193033854,35.578409830729164,37.2155507405599
14,825.0,27.894973754882812,3.9812723795572915,1.3058980305989583,0.8106231689453125,3.536224365234375,39.08665974934896,37.59066263834635,28.58289082845052,26.317596435546875,26.810963948567707,4.014333089192708,1.4642079671223958,0.8576711018880209,3.2367706298828125,36.174774169921875,25.251388549804688
15,826.0,33.833821614583336,3.9806365966796875,1.0776519775390625,1.1698404947916667,3.2323201497395835,34.978230794270836,32.117207845052086,34.845987955729164,36.0724131266276,34.92546081542969,3.917058308919271,1.3154347737630208,0.6268819173177084,3.3747355143229165,23.926417032877605,26.091257731119793
16,827.0,40.7098134358724,3.9838155110677085,1.3745625813802083,0.8754730224609375,3.231684366861979,26.815414428710938,35.358428955078125,45.02105712890625,39.97484842936198,34.32655334472656,3.876368204752604,1.2664794921875,0.919342041015625,3.262201944986979,23.152669270833332,34.123738606770836
17,828.0,33.94126892089844,4.056294759114583,1.7115275065104167,0.72479248046875,3.287633260091146,28.128941853841145,43.61915588378906,37.5054677327474,22.167205810546875,23.188273111979168,4.119873046875,1.2372334798177083,0.9791056315104166,3.489812215169271,28.37053934733073,40.850321451822914
18,829.0,26.892979939778645,4.006703694661458,1.2079874674479167,0.8519490559895834,3.5184224446614585,36.50474548339844,43.14359029134115,28.085072835286457,23.470560709635418,23.199717203776043,3.920873006184896,1.3751983642578125,1.0464986165364583,3.6938985188802085,37.13862101236979,29.953638712565105
19,830.0,29.710769653320312,3.848393758138021,1.4355977376302083,0.9867350260416666,3.4815470377604165,37.200927734375,31.19977315266927,30.710220336914062,30.81957499186198,29.691696166992188,4.0988922119140625,1.2753804524739583,1.0560353597005208,3.559112548828125,28.891245524088543,24.999618530273438
20,831.0,38.280487060546875,4.0620168050130205,1.3580322265625,0.9441375732421875,3.550847371419271,33.46443176269531,32.862345377604164,38.806915283203125,40.23615519205729,37.53344217936198,3.8782755533854165,1.2957255045572917,0.7756551106770834,3.5222371419270835,24.627685546875,29.939015706380207
21,832.0,37.737528483072914,3.7136077880859375,0.9504954020182291,0.6650288899739584,3.451665242513021,30.580520629882812,39.24687703450521,43.83150736490885,30.226389567057293,27.475992838541668,4.225413004557292,1.36566162109375,0.8227030436197916,3.307342529296875,27.55419413248698,38.82280985514323
22,833.0,27.067184448242188,4.141489664713542,1.19781494140625,0.8017222086588541,3.39508056640625,31.64990743001302,45.956929524739586,30.509312947591145,21.465301513671875,22.180557250976562,4.084269205729167,1.33514404296875,1.0248819986979167,3.5680135091145835,32.900492350260414,36.341349283854164
23,834.0,27.864456176757812,4.146575927734375,1.2391408284505208,0.682830810546875,3.390630086263021,37.83861796061198,36.8188222249349,28.594334920247395,26.521682739257812,26.361465454101562,3.6443074544270835,1.4222462972005208,1.0280609130859375,3.426233927408854,35.3234608968099,24.936676025390625
24,835.0,34.35834248860677,3.986994425455729,1.3624827067057292,1.071929931640625,3.4122467041015625,35.95860799153646,31.5704345703125,35.11619567871094,36.661783854166664,35.273234049479164,3.910700480143229,1.2429555257161458,0.6103515625,3.356297810872396,24.423599243164062,26.490529378255207
25,836.0,42.59936014811198,3.9113362630208335,1.3338724772135417,0.8786519368489584,3.4275054931640625,29.691060384114582,34.86951192220052,43.5797373453776,38.44896952311198,35.03227233886719,3.769556681315104,1.5500386555989583,1.0484059651692708,3.2132466634114585,25.314966837565105,33.754984537760414
26,837.0,34.72010294596354,3.7638346354166665,1.3675689697265625,0.8080800374348959,3.2666524251302085,31.416575113932293,43.1067148844401,36.40302022298177,21.486918131510418,23.97473653157552,4.11224365234375,1.2671152750651042,1.1990865071614583,3.387451171875,30.129750569661457,39.76631164550781
27,838.0,28.703689575195312,4.1611989339192705,1.1749267578125,0.7540384928385416,3.379185994466146,34.89240010579427,41.73914591471354,26.128768920898438,22.352218627929688,24.260203043619793,3.7180582682291665,1.4464060465494792,0.7197062174479166,3.327051798502604,36.479949951171875,28.539021809895832
28,839.0,30.290603637695312,3.7167867024739585,1.3217926025390625,0.7928212483723959,3.586451212565104,38.9410654703776,31.214396158854168,30.88696797688802,30.914942423502605,30.57861328125,3.784815470377604,1.422882080078125,0.7317860921223959,3.459294637044271,29.78515625,25.11151631673177
29,840.0,37.78076171875,4.391988118489583,1.384735107421875,0.83160400390625,3.5107930501302085,32.26598103841146,32.985687255859375,39.45223490397135,41.147867838541664,37.188212076822914,4.004160563151042,1.4559427897135417,0.8920033772786459,3.463109334309896,24.001439412434895,30.04137674967448
30,841.0,37.694295247395836,3.7841796875,1.4489491780598958,0.6052652994791666,3.510157267252604,30.095418294270832,39.08602396647135,43.93831888834635,29.755274454752605,26.84338887532552,4.119873046875,1.2696584065755208,0.8252461751302084,3.4046173095703125,27.24774678548177,38.63716125488281
31,842.0,26.701609293619793,4.0493011474609375,1.434326171875,0.774383544921875,3.3969879150390625,36.791483561197914,45.58118184407552,29.664993286132812,21.474838256835938,22.185643513997395,4.0162404378255205,1.5246073404947917,0.946044921875,3.611882527669271,35.870869954427086,36.289215087890625
32,843.0,27.407328287760418,3.9545694986979165,1.4019012451171875,0.8805592854817709,3.497441609700521,39.02308146158854,36.46024068196615,28.943379720052082,27.123133341471355,26.694615681966145,3.8096110026041665,1.6123453776041667,0.988006591796875,3.5158793131510415,35.08758544921875,24.784088134765625
33,844.0,33.559163411458336,3.993988037109375,1.3580322265625,0.8684794108072916,3.2793680826822915,34.70675150553385,31.250635782877605,35.24971008300781,37.06804911295573,34.88477071126302,3.9736429850260415,1.331329345703125,1.1068979899088542,3.307978312174479,23.506800333658855,26.546478271484375
34,845.0,40.1757558186849,4.094441731770833,1.1959075927734375,0.7851918538411459,3.723780314127604,28.029759724934895,35.26624043782552,44.77500915527344,38.875579833984375,33.0651601155599,3.6945343017578125,1.1641184488932292,0.7826487223307291,3.34930419921875,24.208704630533855,34.21847025553385
35,846.0,30.812581380208332,3.829320271809896,1.750946044921875,1.026153564453125,3.2787322998046875,32.11275736490885,43.93323262532552,37.523905436197914,21.996815999348957,21.61725362141927,4.055023193359375,1.461029052734375,0.8252461751302084,3.277460734049479,30.68987528483073,40.195465087890625
36,847.0,25.565465291341145,4.1421254475911455,1.4286041259765625,0.8818308512369791,3.2787322998046875,35.78631083170573,42.37047831217448,28.24846903483073,23.466110229492188,23.495992024739582,3.9532979329427085,1.3790130615234375,1.1374155680338542,3.6328633626302085,37.068684895833336,28.464635213216145
37,848.0,29.489517211914062,3.9265950520833335,1.4781951904296875,0.7203420003255209,3.2329559326171875,37.04643249511719,31.305948893229168,31.884511311848957,31.576792399088543,30.319849650065105,3.9272308349609375,1.3039906819661458,0.843048095703125,3.16619873046875,28.043746948242188,25.244394938151043
38,849.0,37.78711954752604,3.9647420247395835,1.15203857421875,0.9034474690755209,3.3543904622395835,29.685338338216145,33.20630391438802,40.18402099609375,41.45495096842448,36.49330139160156,3.895441691080729,1.422882080078125,0.6930033365885416,3.4395853678385415,22.730509440104168,30.29632568359375
39,850.0,37.43171691894531,4.0124257405598955,1.4177958170572917,0.6999969482421875,3.3588409423828125,29.574076334635418,39.263407389322914,44.18373107910156,29.62938944498698,26.592254638671875,3.928502400716146,1.1641184488932292,0.7432301839192709,3.3206939697265625,26.852925618489582,38.79229227701823
40,851.0,26.75310770670573,3.769556681315104,1.1819203694661458,0.8932749430338541,3.497441609700521,34.1949462890625,44.74004109700521,29.131571451822918,21.432876586914062,22.3388671875,3.8935343424479165,1.3860066731770833,0.888824462890625,3.3315022786458335,34.52173868815104,35.26178995768229
41,852.0,27.94329325358073,3.978093465169271,1.3968149820963542,0.7940928141276041,3.6608378092447915,40.62525431315104,35.67695617675781,28.717041015625,26.544570922851562,27.03094482421875,3.994623819986979,1.5252431233723958,0.7266998291015625,3.4459431966145835,36.10420227050781,24.375279744466145
42,853.0,34.299214680989586,3.6684672037760415,1.2315114339192708,0.70953369140625,3.2094319661458335,32.66461690266927,31.116485595703125,35.552978515625,37.386576334635414,34.894307454427086,4.1344960530598955,1.2518564860026042,0.96893310546875,3.451665242513021,22.620519002278645,26.464462280273438
43,854.0,39.83306884765625,3.836949666341146,1.369476318359375,0.7375081380208334,3.5146077473958335,27.251561482747395,36.14489237467448,45.28236389160156,38.36949666341146,32.796223958333336,3.810882568359375,1.1240641276041667,0.7375081380208334,3.4777323404947915,23.779551188151043,34.8046620686849
44,855.0,30.890146891276043,4.0175120035807295,1.3612111409505208,0.5976359049479166,3.409703572591146,32.45353698730469,43.4729258219401,36.4373524983724,21.713892618815105,21.810531616210938,4.079182942708333,1.4171600341796875,0.762939453125,3.269195556640625,30.700047810872395,39.8871103922526
45,856.0,25.554656982421875,4.1154225667317705,1.3529459635416667,0.7483164469401041,3.6061604817708335,34.497578938802086,42.20263163248698,28.284708658854168,23.92578125,23.660659790039062,3.594080607096354,1.4591217041015625,0.9854634602864584,3.693262736002604,35.992940266927086,28.55682373046875
46,857.0,29.883702596028645,4.140218098958333,1.6155242919921875,1.068115234375,3.3473968505859375,34.8046620686849,30.993143717447918,32.849629720052086,32.0892333984375,30.557632446289062,3.833770751953125,1.2938181559244792,0.8417765299479166,3.342310587565104,28.325398763020832,25.068918863932293
47,858.0,38.29256693522135,4.019419352213542,1.3020833333333333,0.850677490234375,3.452936808268229,31.831741333007812,32.53491719563802,41.231791178385414,42.0068105061849,36.93707784016927,3.815333048502604,1.1119842529296875,0.9129842122395834,3.326416015625,24.221420288085938,29.992421468098957
48,859.0,37.59638468424479,3.955841064453125,1.51824951171875,0.70953369140625,3.352483113606771,30.076344807942707,38.5589599609375,43.39154561360677,28.860727945963543,26.502609252929688,3.7027994791666665,1.3224283854166667,0.7991790771484375,3.2246907552083335,27.406692504882812,38.25696309407552
49,860.0,26.571909586588543,4.055023193359375,1.1622111002604167,0.87738037109375,3.3588409423828125,36.45006815592448,45.00007629394531,29.253641764322918,22.035598754882812,22.113800048828125,3.8210550944010415,1.4031728108723958,0.8684794108072916,3.529230753580729,36.29239400227865,34.98077392578125
50,861.0,27.591705322265625,3.7097930908203125,1.5150705973307292,0.7120768229166666,3.4128824869791665,37.93652852376302,34.90765889485677,29.188156127929688,26.601155598958332,26.92413330078125,3.6710103352864585,1.2505849202473958,0.9161631266276041,3.665924072265625,34.244537353515625,24.428049723307293
51,862.0,34.00103251139323,3.9838155110677085,1.3300577799479167,0.8881886800130209,3.447850545247396,32.36516316731771,30.728658040364582,35.42900085449219,37.20219930013021,35.36542256673177,3.955205281575521,1.407623291015625,1.1761983235677083,3.4885406494140625,22.047678629557293,26.66155497233073
52,863.0,39.850870768229164,3.894170125325521,1.3910929361979167,0.8042653401692709,3.5298665364583335,28.46972147623698,35.67632039388021,44.89580790201823,37.55823771158854,32.31048583984375,3.819147745768229,1.4896392822265625,0.8799235026041666,3.21197509765625,24.478912353515625,34.65716044108073
53,864.0,29.725392659505207,4.06646728515625,1.3662974039713542,0.8900960286458334,3.310521443684896,30.185699462890625,43.813069661458336,35.64008076985677,21.673202514648438,21.706263224283855,4.124959309895833,1.1965433756510417,0.9988149007161459,3.4122467041015625,29.668807983398438,39.81717427571615
54,865.0,26.159922281901043,4.100799560546875,1.575469970703125,0.7680257161458334,3.3111572265625,37.966410319010414,41.514078776041664,28.009414672851562,23.824055989583332,23.492813110351562,3.876368204752604,1.1749267578125,0.8385976155598959,3.527959187825521,37.8882090250651,27.849197387695312
55,866.0,30.595779418945312,3.9920806884765625,1.3662974039713542,0.7661183675130209,3.577550252278646,41.081746419270836,31.046549479166668,32.864888509114586,32.26534525553385,30.516306559244793,4.1751861572265625,1.407623291015625,0.9199778238932291,3.28826904296875,29.86462910970052,25.28063456217448
56,867.0,37.97594706217448,4.3443044026692705,1.2696584065755208,0.8017222086588541,3.5648345947265625,31.244913736979168,32.9583485921224,41.06903076171875,41.660308837890625,36.053975423177086,3.819147745768229,1.1965433756510417,0.5741119384765625,3.658930460611979,24.19598897298177,30.667622884114582
57,868.0,36.84107462565104,3.9469401041666665,1.4890034993489583,0.8792877197265625,3.7244160970052085,31.219482421875,39.700826009114586,43.37374369303385,28.561909993489582,25.864919026692707,3.917058308919271,1.300811767578125,0.4990895589192708,3.502527872721354,27.944564819335938,39.06440734863281
58,869.0,27.729034423828125,4.2266845703125,0.919342041015625,0.8296966552734375,3.1642913818359375,32.17951456705729,44.80616251627604,27.796427408854168,21.489461263020832,23.155848185221355,3.838221232096354,1.4750162760416667,0.9333292643229166,3.466924031575521,33.878326416015625,34.53509012858073
59,870.0,27.847925821940105,3.997802734375,1.3306935628255208,0.8392333984375,3.6303202311197915,39.716084798177086,34.779866536458336,29.20214335123698,27.0843505859375,27.20197041829427,3.928502400716146,1.40380859375,0.8284250895182291,3.4395853678385415,34.72455342610677,24.28754170735677
60,871.0,34.04871622721354,4.0225982666015625,1.1838277180989583,0.8296966552734375,3.3588409423828125,35.991668701171875,30.946731567382812,36.20592753092448,38.01282246907552,35.245259602864586,4.202524820963542,1.3834635416666667,1.0039011637369792,3.426233927408854,24.124781290690105,26.873270670572918
61,872.0,38.51318359375,4.144032796223958,1.2194315592447917,0.7661183675130209,3.730138142903646,29.016494750976562,35.56187947591146,45.80243428548177,37.44379679361979,32.09749857584635,3.768285115559896,1.373291015625,0.6453196207682291,3.533045450846354,24.973551432291668,34.2871348063151
62,873.0,29.09088134765625,3.994623819986979,1.2969970703125,1.010894775390625,3.093719482421875,34.11038716634115,43.06221008300781,35.89566548665365,21.723429361979168,21.44177754720052,4.0162404378255205,1.3974507649739583,0.8881886800130209,3.4084320068359375,32.3327382405599,39.173126220703125
63,874.0,25.405248006184895,3.8852691650390625,1.2385050455729167,0.9365081787109375,3.5146077473958335,39.57303365071615,40.49046834309896,28.413136800130207,23.978551228841145,23.352940877278645,3.9278666178385415,1.3338724772135417,0.8538564046223959,3.651301066080729,38.93470764160156,27.159372965494793
64,875.0,30.109405517578125,3.96728515625,1.2734731038411458,0.8767445882161459,3.3658345540364585,36.407470703125,31.033833821614582,32.063802083333336,32.24372863769531,30.700047810872395,4.128774007161458,1.2868245442708333,0.9848276774088541,3.4014383951822915,27.106602986653645,24.96337890625
65,876.0,37.511189778645836,3.875096638997396,1.3739267985026042,0.873565673828125,3.34930419921875,28.794606526692707,33.175150553385414,41.29981994628906,41.178385416666664,35.86896260579427,3.745396931966146,1.224517822265625,0.96893310546875,3.494898478190104,23.05285135904948,30.733108520507812
66,877.0,36.376953125,3.638585408528646,1.2969970703125,0.6968180338541666,3.589630126953125,32.95771280924479,40.07911682128906,42.97955830891927,27.98016866048177,25.55402119954427,3.966649373372396,1.3567606608072917,0.9797414143880209,3.4090677897135415,29.261271158854168,39.23670450846354
67,878.0,29.442469278971355,3.7282307942708335,1.4025370279947917,1.0363260904947917,3.44085693359375,35.74689229329427,44.277191162109375,25.883992513020832,20.68646748860677,23.979822794596355,3.5832722981770835,1.3039906819661458,0.7953643798828125,3.6379496256510415,35.85243225097656,34.191131591796875
68,879.0,28.280258178710938,3.787358601888021,1.30462646484375,0.7406870524088541,3.249486287434896,40.6335194905599,33.83700052897135,29.170989990234375,26.749928792317707,27.48552958170573,3.8159688313802085,1.2289683024088542,0.7953643798828125,3.547032674153646,34.75507100423177,24.039586385091145
69,880.0,34.404754638671875,4.145304361979167,1.4400482177734375,0.7940928141276041,3.218968709309896,32.346089680989586,31.419118245442707,35.59748331705729,37.9021962483724,35.88549296061198,4.123687744140625,1.2296040852864583,0.8881886800130209,3.600438435872396,22.512435913085938,26.960372924804688
70,881.0,39.601643880208336,4.058837890625,1.399993896484375,0.8907318115234375,3.45611572265625,28.153101603190105,36.56895955403646,45.224507649739586,36.73108418782552,31.724294026692707,3.802617390950521,1.51824951171875,0.8748372395833334,3.505071004231771,24.361292521158855,35.10220845540365
71,882.0,30.472437540690105,3.9844512939453125,1.4044443766276042,1.0464986165364583,3.2100677490234375,33.7670644124349,44.17101542154948,34.73091125488281,21.073659261067707,21.99109395345052,3.993352254231771,1.4661153157552083,0.9969075520833334,3.3404032389322915,32.16361999511719,39.42298889160156
72,883.0,25.95837910970052,3.9615631103515625,1.3554890950520833,0.9969075520833334,3.581364949544271,36.407470703125,39.7796630859375,28.010050455729168,23.86919657389323,23.72296651204427,3.8166046142578125,1.2486775716145833,0.9250640869140625,3.363927205403646,36.76541646321615,26.407877604166668
73,884.0,30.057907104492188,3.761927286783854,1.3052622477213542,0.9530385335286459,3.3168792724609375,35.18486022949219,30.1666259765625,31.476338704427082,32.59849548339844,30.759175618489582,4.193623860677083,1.2639363606770833,0.9396870930989584,3.2787322998046875,26.18853251139323,24.744669596354168
74,885.0,38.61681620279948,3.868738810221354,1.2416839599609375,0.5219777425130209,3.3092498779296875,27.158737182617188,32.505035400390625,41.553497314453125,41.229248046875,36.01646423339844,3.8172403971354165,1.4330546061197917,0.8360544840494791,3.5082499186197915,22.157669067382812,30.243555704752605
75,886.0,34.304300944010414,4.117329915364583,1.45721435546875,0.7909138997395834,3.3251444498697915,26.76709493001302,39.440155029296875,43.58100891113281,28.028488159179688,24.437586466471355,4.018147786458333,1.1965433756510417,0.8341471354166666,3.341039021809896,25.674819946289062,39.14833068847656
76,887.0,27.429580688476562,3.8503011067708335,0.9028116861979166,0.965118408203125,3.299713134765625,31.56598409016927,44.25684611002604,27.894337972005207,21.900177001953125,23.019790649414062,3.6907196044921875,1.3020833333333333,0.7788340250651041,3.3238728841145835,33.907572428385414,33.68250528971354
77,888.0,27.115503946940105,3.840764363606771,1.3968149820963542,0.8538564046223959,3.7670135498046875,38.967132568359375,33.95652770996094,29.186248779296875,27.468363444010418,27.339935302734375,3.8852691650390625,1.3033548990885417,0.8970896402994791,3.3709208170572915,33.541361490885414,24.000803629557293
78,889.0,34.512837727864586,3.8127899169921875,1.2276967366536458,0.8284250895182291,3.338495890299479,30.803680419921875,31.393051147460938,35.89057922363281,38.238525390625,35.565694173177086,3.993988037109375,1.6415913899739583,0.8309682210286459,3.3353169759114585,21.436055501302082,27.40033467610677
79,890.0,38.94805908203125,3.9914449055989585,1.3720194498697917,0.9015401204427084,3.2285054524739585,26.955922444661457,36.32291158040365,45.62505086263021,36.38331095377604,30.9906005859375,4.0213267008463545,1.3020833333333333,0.8697509765625,3.322601318359375,23.852030436197918,35.17977396647135
80,891.0,30.32239278157552,4.2222340901692705,1.270294189453125,0.5594889322916666,3.3785502115885415,28.252919514973957,43.91034444173177,33.887227376302086,20.77166239420573,22.214253743489582,3.9463043212890625,1.3624827067057292,0.7044474283854166,3.3245086669921875,29.327392578125,39.1686757405599
81,892.0,25.643666585286457,3.9081573486328125,1.3478597005208333,0.995635986328125,3.505071004231771,38.74651590983073,39.614359537760414,27.922312418619793,24.317423502604168,23.821512858072918,4.002888997395833,1.3853708902994792,0.8494059244791666,3.6099751790364585,37.960052490234375,26.54711405436198
82,893.0,30.68097432454427,3.9234161376953125,1.3001759847005208,0.7794698079427084,3.3054351806640625,37.30646769205729,30.494054158528645,31.682332356770832,32.72565205891927,31.462351481119793,3.9520263671875,1.4019012451171875,0.8576711018880209,3.3556620279947915,27.35137939453125,25.06701151529948
83,894.0,39.0313466389974,4.088083902994792,1.2404123942057292,1.0019938151041667,3.5692850748697915,28.7322998046875,32.89794921875,41.2591298421224,40.501912434895836,36.30638122558594,3.7555694580078125,1.3249715169270833,0.7146199544270834,3.6182403564453125,23.187001546223957,30.602137247721355
84,895.0,34.65906778971354,3.7943522135416665,1.1622111002604167,0.6834665934244791,3.4535725911458335,32.140096028645836,40.10581970214844,42.736053466796875,26.961008707682293,24.379730224609375,4.1611989339192705,1.2900034586588542,0.820159912109375,3.2971700032552085,29.078165690104168,39.614359537760414
85,896.0,26.460647583007812,4.149119059244792,1.1285146077473958,0.9136199951171875,3.4122467041015625,34.36915079752604,44.2962646484375,26.578267415364582,21.263758341471355,22.81634012858073,3.5883585611979165,1.7770131429036458,0.5671183268229166,3.3702850341796875,35.79012552897135,33.50067138671875
86,897.0,27.58471171061198,3.9660135904947915,1.3675689697265625,0.8036295572916666,3.405888875325521,39.57494099934896,33.88532002766927,29.204050699869793,27.925491333007812,27.063369750976562,3.894170125325521,1.4489491780598958,0.8220672607421875,3.268559773763021,33.526102701822914,23.827870686848957
87,898.0,34.390767415364586,3.868738810221354,1.2613932291666667,1.033782958984375,3.2399495442708335,33.5540771484375,30.92511494954427,36.34516398111979,38.79356384277344,35.5841318766276,4.281361897786458,1.1564890543619792,0.7260640462239584,3.371556599934896,23.209253946940105,27.119954427083332
88,899.0,39.333343505859375,3.842035929361979,1.2912750244140625,0.6936391194661459,3.540674845377604,28.69733174641927,36.102294921875,44.79026794433594,35.35906473795573,31.053543090820312,3.96728515625,1.0318756103515625,0.9530385335286459,3.7485758463541665,24.972279866536457,35.23063659667969
89,900.0,29.214859008789062,4.024505615234375,0.9098052978515625,0.827789306640625,3.369013468424479,29.407501220703125,43.86711120605469,34.19621785481771,20.69091796875,21.652857462565105,4.3582916259765625,1.1609395345052083,0.7883707682291666,3.4281412760416665,29.89959716796875,39.15087381998698
90,901.0,26.346842447916668,4.009246826171875,1.117706298828125,0.9009043375651041,3.5998026529947915,36.348978678385414,39.64106241861979,27.65337626139323,23.948033650716145,23.983001708984375,4.0047963460286455,1.2200673421223958,0.9937286376953125,3.4166971842447915,36.252339680989586,26.22540791829427
91,902.0,30.50549825032552,3.924687703450521,1.2003580729166667,0.7171630859375,3.369013468424479,35.44934590657552,30.251185099283855,31.729380289713543,32.93164571126302,31.319936116536457,4.0760040283203125,1.3993581136067708,0.9333292643229166,3.330230712890625,25.880177815755207,25.039037068684895
92,903.0,38.516998291015625,4.0963490804036455,1.1990865071614583,0.8455912272135416,3.4942626953125,28.59942118326823,32.59976704915365,41.8402353922526,40.5584971110026,35.81110636393229,3.8045247395833335,1.445770263671875,0.8653004964192709,3.60870361328125,23.281097412109375,30.832926432291668
93,904.0,34.93054707845052,3.8439432779947915,1.2811024983723958,1.0089874267578125,3.3086140950520835,33.047993977864586,40.15986124674479,41.0010019938151,26.082992553710938,24.716695149739582,4.130045572916667,1.3561248779296875,0.8614857991536459,3.452301025390625,29.93329366048177,39.7485097249349
94,905.0,26.314417521158855,4.0073394775390625,1.2098948160807292,0.77056884765625,3.2501220703125,35.16705830891927,44.1888173421224,27.762095133463543,22.197723388671875,22.429784138997395,4.057566324869792,1.3974507649739583,0.7654825846354166,3.424962361653646,35.82445780436198,33.053080240885414
95,906.0,27.99542744954427,3.787358601888021,1.4254252115885417,0.8818308512369791,3.430048624674479,42.12061564127604,33.39385986328125,29.61413065592448,28.511683146158855,27.70551045735677,3.811518351236979,1.2003580729166667,0.7845560709635416,3.0237833658854165,34.69721476236979,24.619420369466145
96,907.0,34.818013509114586,3.9227803548177085,1.1850992838541667,0.9403228759765625,3.2628377278645835,31.410853068033855,31.53673807779948,37.28612263997396,39.204915364583336,35.98976135253906,4.131317138671875,1.3020833333333333,0.7311503092447916,3.5578409830729165,21.804173787434895,27.573903401692707
97,908.0,39.067586263020836,4.215240478515625,1.3701121012369792,0.7197062174479166,3.455479939778646,30.019124348958332,36.40111287434896,45.0890858968099,34.90893046061198,30.68860371907552,3.7854512532552085,1.5163421630859375,0.9333292643229166,3.3047993977864585,25.727589925130207,35.60066223144531
98,909.0,29.325485229492188,3.9189656575520835,1.2747446695963542,0.9307861328125,3.1750996907552085,29.905319213867188,44.20026143391927,34.71501668294271,21.15631103515625,21.554311116536457,4.0721893310546875,1.4470418294270833,0.7394154866536459,3.50189208984375,30.696868896484375,38.84760538736979
99,910.0,27.88988749186198,4.1243235270182295,1.4108022054036458,0.873565673828125,3.444035847981771,36.443074544270836,38.80437215169271,25.925318400065105,23.247400919596355,25.391260782877605,3.697077433268229,1.46484375,0.8691151936848959,3.6290486653645835,36.449432373046875,25.686899820963543
100,911.0,31.01793924967448,4.042307535807292,1.5036265055338542,0.820159912109375,3.2634735107421875,35.2325439453125,30.481338500976562,31.73510233561198,33.496856689453125,31.618754069010418,3.990809122721354,1.1266072591145833,0.6059010823567709,3.4389495849609375,25.576273600260418,25.145848592122395
101,912.0,38.24043273925781,4.0480295817057295,1.251220703125,0.8494059244791666,3.3022562662760415,30.458450317382812,33.66724650065104,42.858123779296875,40.90118408203125,36.02409362792969,3.8808186848958335,1.4597574869791667,0.40435791015625,3.291447957356771,24.394989013671875,31.490325927734375
102,913.0,34.320831298828125,3.822962443033854,1.1812845865885417,1.514434814453125,3.4809112548828125,27.922948201497395,40.24632771809896,42.22551981608073,26.631673177083332,23.873011271158855,4.052480061848958,1.2009938557942708,1.2563069661458333,3.3594767252604165,26.374181111653645,39.889017740885414
103,914.0,26.946385701497395,4.1599273681640625,1.2454986572265625,0.9479522705078125,3.604888916015625,35.78758239746094,44.64276631673177,26.713053385416668,21.584828694661457,22.84685770670573,4.1535695393880205,1.2238820393880208,0.8150736490885416,3.4313201904296875,36.30510965983073,32.81084696451823
104,915.0,30.16217549641927,3.8471221923828125,1.3720194498697917,0.6306966145833334,3.4166971842447915,38.660685221354164,32.95008341471354,27.117411295572918,26.812235514322918,28.836568196614582,4.21905517578125,1.2499491373697917,0.9199778238932291,3.3047993977864585,32.52474466959635,24.193445841471355
105,916.0,35.091400146484375,4.0060679117838545,1.1081695556640625,0.885009765625,3.5146077473958335,30.412038167317707,31.47443135579427,36.708831787109375,38.889567057291664,36.29239400227865,3.8019816080729165,1.4870961507161458,0.8570353190104166,3.6951700846354165,21.331151326497395,27.62603759765625
106,917.0,38.97221883138021,3.673553466796875,1.178741455078125,0.7883707682291666,3.4726460774739585,25.849660237630207,36.42972310384115,45.70897420247396,34.983317057291664,30.193328857421875,3.80706787109375,1.3942718505859375,0.8074442545572916,3.5489400227864585,23.46483866373698,35.75833638509115
107,918.0,28.817494710286457,4.0480295817057295,1.2969970703125,0.8023579915364584,3.277460734049479,30.813217163085938,43.81561279296875,34.314473470052086,21.262486775716145,21.61852518717448,4.1624704996744795,1.4235178629557292,0.7718404134114584,3.330866495768229,31.39940897623698,38.79229227701823
108,919.0,26.264190673828125,3.73077392578125,1.6237894694010417,0.7305145263671875,3.5069783528645835,39.2602284749349,38.10564676920573,27.806599934895832,24.141947428385418,24.49353535970052,4.067738850911458,1.3071695963541667,0.8023579915364584,3.447850545247396,37.685394287109375,25.734583536783855
109,920.0,29.637654622395832,4.049936930338542,1.4966328938802083,0.8513132731119791,3.5037994384765625,40.149688720703125,30.516306559244793,32.314300537109375,33.940633138020836,31.224568684895832,3.8960774739583335,1.0789235432942708,0.7387797037760416,3.266016642252604,28.319040934244793,25.25774637858073
110,921.0,38.80882263183594,4.0187835693359375,1.3090769449869792,1.0744730631510417,3.459294637044271,28.410593668619793,33.07660420735677,42.34759012858073,40.44405619303385,35.77105204264323,3.787994384765625,1.2118021647135417,0.7279713948567709,3.57818603515625,23.05157979329427,31.097412109375
111,922.0,34.35516357421875,3.845850626627604,1.2760162353515625,0.4831949869791667,3.2908121744791665,29.573440551757812,40.62652587890625,41.35004679361979,25.7415771484375,24.160385131835938,3.917694091796875,1.1838277180989583,0.8525848388671875,3.575007120768229,28.319676717122395,40.1159922281901
112,923.0,27.092615763346355,4.085540771484375,0.9676615397135416,0.7114410400390625,3.4542083740234375,34.84662373860677,44.217427571614586,26.437123616536457,21.366119384765625,23.020426432291668,3.597895304361979,1.1895497639973958,0.7381439208984375,3.314971923828125,36.22627258300781,32.14200337727865
113,924.0,27.88098653157552,3.707249959309896,1.3300577799479167,0.8182525634765625,3.5031636555989585,39.470672607421875,32.57942199707031,29.119491577148438,28.29742431640625,27.703603108723957,3.8401285807291665,1.285552978515625,0.4762013753255208,3.284454345703125,32.60358174641927,23.859024047851562
114,925.0,34.68767801920573,3.9583841959635415,1.1749267578125,0.7642110188802084,3.239313761393229,29.8614501953125,30.904134114583332,37.1850331624349,39.2144521077474,36.290486653645836,4.011789957682292,1.3281504313151042,0.7953643798828125,3.383000691731771,21.18682861328125,27.811686197916668
115,926.0,38.83171081542969,3.6067962646484375,1.1730194091796875,0.8004506429036459,3.3887227376302085,28.08380126953125,35.970052083333336,44.942220052083336,34.52618916829427,29.738744099934895,3.7937164306640625,1.3497670491536458,0.8214314778645834,3.341039021809896,24.878819783528645,35.44934590657552
116,927.0,28.144200642903645,3.8890838623046875,1.0248819986979167,0.8678436279296875,3.353118896484375,30.221303304036457,44.1137949625651,33.0804189046224,21.07683817545573,21.268844604492188,3.979365030924479,1.1679331461588542,0.827789306640625,3.4421284993489585,31.171798706054688,38.26332092285156
117,928.0,26.101430257161457,3.8134256998697915,1.1742909749348958,0.8271535237630209,3.498713175455729,39.775848388671875,39.293924967447914,26.964187622070312,24.169921875,24.18963114420573,3.7676493326822915,1.1971791585286458,0.9632110595703125,3.455479939778646,37.709554036458336,26.200612386067707
118,929.0,30.632654825846355,3.7511189778645835,1.4425913492838542,0.8939107259114584,3.276824951171875,37.26323445638021,30.907313028971355,32.66207377115885,33.59349568684896,32.152811686197914,4.0130615234375,1.1138916015625,0.8894602457682291,3.276824951171875,26.776631673177082,25.779088338216145
119,930.0,39.22208150227865,4.4778188069661455,1.3682047526041667,0.8322397867838541,3.4961700439453125,28.855641682942707,33.6761474609375,42.3132578531901,39.87820943196615,35.75960795084635,3.894805908203125,1.1088053385416667,0.6720225016276041,3.4001668294270835,23.782730102539062,31.61176045735677
120,931.0,33.7530771891276,3.9342244466145835,1.277923583984375,0.9085337320963541,3.334681193033854,29.24664815266927,40.720621744791664,41.034698486328125,25.6500244140625,23.08972676595052,3.983179728190104,1.4031728108723958,0.6071726481119791,3.201166788736979,28.23193868001302,40.21581013997396
121,932.0,24.46746826171875,4.1484832763671875,0.9511311848958334,0.6548563639322916,3.4351348876953125,34.520467122395836,43.34449768066406,27.561187744140625,22.308349609375,21.469751993815105,4.042307535807292,1.461029052734375,0.9740193684895834,3.497441609700521,35.81555684407552,31.618754069010418
122,933.0,27.711232503255207,3.7027994791666665,1.2410481770833333,0.8398691813151041,3.6602020263671875,39.85150655110677,33.419291178385414,28.75963846842448,28.108596801757812,27.542750040690105,3.990809122721354,1.1539459228515625,0.8252461751302084,3.325780232747396,33.05689493815104,24.687449137369793
123,934.0,34.93436177571615,4.001617431640625,1.346588134765625,0.8227030436197916,3.2018025716145835,33.4625244140625,31.79931640625,37.15197245279948,38.64479064941406,36.150614420572914,3.856658935546875,1.2365976969401042,0.7451375325520834,3.444671630859375,23.101806640625,28.081893920898438
124,935.0,38.93089294433594,3.772099812825521,1.3192494710286458,0.5480448404947916,3.5641988118489585,29.259363810221355,36.86714172363281,44.77564493815104,33.69839986165365,30.024210611979168,3.981908162434896,1.1348724365234375,0.8633931477864584,3.260930379231771,25.810877482096355,36.50856018066406
125,936.0,27.33612060546875,4.0264129638671875,1.3567606608072917,0.9435017903645834,3.348668416341146,30.865987141927082,44.05339558919271,33.05625915527344,20.799636840820312,21.433512369791668,4.019419352213542,1.2404123942057292,0.8138020833333334,3.5915374755859375,31.372706095377605,38.76940409342448
126,937.0,26.131947835286457,3.8433074951171875,1.3217926025390625,0.7998148600260416,3.4275054931640625,37.16087341308594,38.41082255045573,27.75891621907552,24.262746175130207,24.153391520182293,3.8083394368489585,1.171112060546875,0.8983612060546875,3.211339314778646,36.05524698893229,25.002161661783855
127,938.0,31.080881754557293,3.9348602294921875,1.216888427734375,0.77056884765625,3.4039815266927085,35.30756632486979,30.785242716471355,32.86552429199219,34.01883443196615,32.086690266927086,3.756841023763021,1.2009938557942708,0.7654825846354166,3.258387247721354,25.168100992838543,25.568644205729168
128,939.0,38.68420918782552,4.053751627604167,1.232147216796875,0.5753835042317709,3.5578409830729165,29.438018798828125,34.15552775065104,42.6934560139974,39.97675577799479,35.42391459147135,4.0276845296223955,1.102447509765625,0.7883707682291666,3.5222371419270835,23.983001708984375,31.944910685221355
129,940.0,33.2635243733724,4.0047963460286455,1.1660257975260417,0.8424123128255209,3.391265869140625,30.174891153971355,40.96412658691406,41.158040364583336,25.69580078125,22.750218709309895,4.2387644449869795,1.3306935628255208,0.7750193277994791,3.4434000651041665,28.296152750651043,40.334065755208336
130,941.0,26.919047037760418,3.9202372233072915,1.1005401611328125,0.8856455485026041,3.2704671223958335,33.8592529296875,43.94849141438802,26.52295430501302,21.874745686848957,23.291269938151043,3.905614217122396,1.3662974039713542,0.8513132731119791,3.615697224934896,35.3857676188151,31.78723653157552
131,942.0,28.367996215820312,3.756841023763021,1.1844635009765625,1.0045369466145833,3.3397674560546875,36.8506113688151,32.155354817708336,29.950459798177082,29.054005940755207,27.984619140625,3.845850626627604,1.2715657552083333,0.6898244222005209,3.215789794921875,30.683517456054688,24.580637613932293
132,943.0,34.459431966145836,3.9615631103515625,1.2054443359375,0.5276997884114584,3.220240275065104,31.572341918945312,30.969619750976562,38.01536560058594,39.469401041666664,36.23008728027344,3.8967132568359375,1.2690226236979167,0.7781982421875,3.3543904622395835,22.284189860026043,27.667999267578125
133,944.0,38.167317708333336,3.8280487060546875,1.4394124348958333,0.6771087646484375,3.5343170166015625,25.9246826171875,36.73235575358073,44.57537333170573,33.32646687825521,29.37634785970052,3.8121541341145835,1.3345082600911458,0.7947285970052084,3.185272216796875,23.39490254720052,36.407470703125
134,945.0,29.76544698079427,4.1510264078776045,1.3561248779296875,0.7406870524088541,3.273646036783854,28.868993123372395,44.69172159830729,31.031290690104168,19.495646158854168,22.6593017578125,3.7511189778645835,1.4260609944661458,0.6459554036458334,3.2787322998046875,30.39232889811198,38.27667236328125
135,946.0,26.873270670572918,3.792444864908854,1.3624827067057292,0.8252461751302084,3.4917195638020835,38.623809814453125,37.78902689615885,27.428309122721355,24.578094482421875,24.756749471028645,3.582636515299479,1.3879140218098958,0.873565673828125,3.421783447265625,36.91800435384115,24.90552266438802
136,947.0,30.92638651529948,3.783543904622396,1.2715657552083333,0.6453196207682291,3.349939982096354,37.03117370605469,30.466715494791668,33.467610677083336,34.07414754231771,32.511393229166664,4.0086110432942705,1.4406840006510417,0.7915496826171875,3.490447998046875,25.922139485677082,25.622049967447918
137,948.0,39.18902079264323,4.0594736735026045,1.4108022054036458,0.7311503092447916,3.353754679361979,25.771458943684895,32.84390767415365,43.08128356933594,39.70527648925781,35.50593058268229,3.815333048502604,1.5716552734375,0.6987253824869791,3.513336181640625,22.179285685221355,31.373977661132812
138,949.0,34.29539998372396,3.864924112955729,1.2365976969401042,0.8958180745442709,3.405888875325521,31.110127766927082,40.41099548339844,39.00146484375,24.6734619140625,23.283640543619793,3.92913818359375,1.4260609944661458,0.7120768229166666,3.3060709635416665,29.067357381184895,39.92652893066406
139,950.0,25.31750996907552,3.6760965983072915,1.0827382405598958,1.003265380859375,3.452301025390625,34.69149271647135,43.90144348144531,27.292887369791668,22.050221761067707,22.339502970377605,3.8884480794270835,1.2079874674479167,1.0420481363932292,3.424962361653646,35.608927408854164,31.540552775065105
140,951.0,28.052647908528645,3.8388570149739585,1.3014475504557292,0.8761088053385416,3.543217976888021,37.92762756347656,32.04536437988281,29.18561299641927,28.534571329752605,27.947743733723957,4.1370391845703125,1.0859171549479167,0.9002685546875,3.3861796061197915,31.067530314127605,24.386088053385418
141,952.0,33.70793660481771,4.023234049479167,1.3287862141927083,0.7063547770182291,3.398259480794271,34.43717956542969,31.79486592610677,38.65877787272135,39.45032755533854,36.364237467447914,4.077911376953125,1.514434814453125,0.7069905598958334,3.6455790201822915,24.064381917317707,28.101603190104168
142,953.0,38.14379374186198,3.5959879557291665,1.3726552327473958,0.7330576578776041,3.699620564778646,28.254191080729168,36.4996592203776,44.891357421875,33.458709716796875,28.818130493164062,3.9812723795572915,1.224517822265625,0.9256998697916666,3.3245086669921875,24.929046630859375,36.135355631510414
143,954.0,28.105417887369793,4.185994466145833,1.1583964029947917,0.8411407470703125,3.268559773763021,29.893239339192707,43.986002604166664,32.32129414876302,20.928700764973957,21.744410196940105,3.918329874674479,1.399993896484375,0.8862813313802084,3.5858154296875,31.149546305338543,37.35542297363281
144,955.0,25.830586751302082,3.990809122721354,1.4654795328776042,0.8951822916666666,3.4879048665364585,37.150065104166664,37.49656677246094,28.221766153971355,25.11151631673177,24.471282958984375,3.7511189778645835,1.4851888020833333,0.8449554443359375,3.3416748046875,35.59557596842448,24.99834696451823
145,956.0,31.10504150390625,3.6900838216145835,1.2537638346354167,0.8602142333984375,3.170013427734375,33.46824645996094,30.208587646484375,33.38940938313802,34.23182169596354,32.07588195800781,4.025777180989583,1.3987223307291667,1.1208852132161458,3.30352783203125,24.075826009114582,25.70660909016927
146,957.0,39.02753194173177,4.3786366780598955,1.129150390625,0.7108052571614584,3.4701029459635415,27.024586995442707,33.4631601969401,43.195088704427086,39.98692830403646,34.66097513834635,4.0938059488932295,1.3510386149088542,0.7692972819010416,3.2831827799479165,22.77056376139323,31.892140706380207
147,958.0,33.30103556315104,3.945032755533854,1.2531280517578125,0.7947285970052084,3.4650166829427085,29.337565104166668,40.67293802897135,39.836883544921875,24.477005004882812,22.39227294921875,4.085540771484375,1.27410888671875,0.8398691813151041,3.405888875325521,28.194427490234375,39.99201456705729
148,959.0,25.257110595703125,3.868738810221354,1.2105305989583333,0.5982716878255209,3.574371337890625,34.31065877278646,43.45512390136719,27.647654215494793,22.617340087890625,22.249221801757812,3.8013458251953125,1.3828277587890625,0.7114410400390625,3.3353169759114585,35.649617513020836,31.016031901041668
149,960.0,27.779261271158855,3.9647420247395835,1.4088948567708333,0.7953643798828125,3.604253133138021,36.81818644205729,31.487147013346355,30.23529052734375,29.238382975260418,28.207778930664062,3.8248697916666665,1.1946360270182292,0.6961822509765625,3.4840901692708335,30.23529052734375,24.187088012695312
150,961.0,35.16515096028646,3.989537556966146,1.3802846272786458,0.9218851725260416,3.430048624674479,32.64808654785156,31.014760335286457,38.62190246582031,39.92907206217448,36.56959533691406,4.1383107503255205,1.3751983642578125,0.9250640869140625,3.235499064127604,22.967020670572918,27.865091959635418
151,962.0,38.78211975097656,3.6532084147135415,1.6206105550130208,0.7203420003255209,3.6417643229166665,26.933670043945312,36.01201375325521,44.769287109375,33.10267130533854,29.20087178548177,4.0938059488932295,1.1068979899088542,0.9644826253255209,3.5107930501302085,24.368921915690105,36.472320556640625
152,963.0,27.469635009765625,4.152933756510417,1.1234283447265625,1.003265380859375,3.4154256184895835,32.98759460449219,44.62877909342448,32.06062316894531,20.715077718098957,21.52697245279948,3.8776397705078125,1.0744730631510417,0.7432301839192709,3.475189208984375,32.605489095052086,37.570953369140625
153,964.0,28.083165486653645,3.8541158040364585,1.5716552734375,0.7597605387369791,3.3747355143229165,36.3165537516276,37.66632080078125,26.034037272135418,23.932139078776043,25.801340738932293,3.733952840169271,1.5169779459635417,0.9326934814453125,3.3162434895833335,35.044352213541664,24.797439575195312
154,965.0,31.25317891438802,3.7059783935546875,1.2423197428385417,0.6917317708333334,3.325780232747396,34.404754638671875,30.307769775390625,33.01811218261719,34.0112050374349,33.139546712239586,3.985722859700521,0.9714762369791666,0.7648468017578125,3.2666524251302085,24.06628926595052,25.64239501953125
155,966.0,39.507548014322914,3.7479400634765625,1.2868245442708333,1.1501312255859375,3.353118896484375,29.503504435221355,33.51402282714844,42.964935302734375,39.7955576578776,34.868876139322914,3.9043426513671875,1.4750162760416667,0.8017222086588541,3.6837259928385415,24.24176534016927,32.10131327311198
156,967.0,32.25898742675781,3.9234161376953125,1.5176137288411458,0.7654825846354166,3.47137451171875,28.069178263346355,41.30872090657552,39.40264383951823,24.072011311848957,22.416432698567707,4.00543212890625,1.132965087890625,1.0503133138020833,3.4968058268229165,27.37108866373698,40.28193155924479
157,968.0,24.687449137369793,3.956476847330729,1.3421376546223958,0.9059906005859375,3.600438435872396,33.312479654947914,43.271382649739586,26.871999104817707,22.203445434570312,22.527058919270832,3.9272308349609375,1.5672047932942708,0.8341471354166666,3.482182820638021,35.13908386230469,30.887603759765625
158,969.0,27.56818135579427,3.9119720458984375,1.3262430826822917,0.9276072184244791,3.344853719075521,36.57404581705729,32.002766927083336,30.534108479817707,29.375076293945312,27.790069580078125,3.842035929361979,1.1227925618489583,0.823974609375,3.112157185872396,30.069351196289062,24.637222290039062
159,970.0,35.26496887207031,3.887176513671875,1.3834635416666667,1.0045369466145833,3.5998026529947915,33.65516662597656,30.913670857747395,38.55069478352865,39.454142252604164,36.083221435546875,3.7244160970052085,1.2683868408203125,0.7578531901041666,3.6303202311197915,23.804982503255207,28.165181477864582
160,971.0,37.58557637532552,3.913243611653646,1.3891855875651042,0.9148915608723959,3.5463968912760415,29.895782470703125,37.03880310058594,44.76165771484375,32.84263610839844,28.40868631998698,3.890355428059896,1.2804667154947917,0.7813771565755209,3.4014383951822915,26.299794514973957,36.90401713053385
161,972.0,28.947194417317707,3.932317097981771,1.2696584065755208,0.8220672607421875,3.388086954752604,30.79986572265625,44.55757141113281,30.659993489583332,20.021438598632812,22.630055745442707,4.266103108723958,1.399993896484375,0.8068084716796875,3.4306844075520835,31.665802001953125,37.628173828125
162,973.0,26.129404703776043,3.9431254069010415,1.5856424967447917,0.8411407470703125,3.527959187825521,36.66814168294271,37.36241658528646,27.672449747721355,25.070826212565105,24.71478780110677,3.890355428059896,1.4127095540364583,0.934600830078125,3.337860107421875,35.16578674316406,24.756749471028645
163,974.0,30.924479166666668,4.327138264973958,1.3027191162109375,0.8989969889322916,3.3022562662760415,33.00031026204427,30.190149943033855,34.166971842447914,34.571329752604164,32.54127502441406,3.8274129231770835,1.2868245442708333,1.2175242106119792,3.41033935546875,23.44957987467448,25.622049967447918
164,975.0,38.94742329915365,4.0671030680338545,1.5920003255208333,0.7495880126953125,3.3785502115885415,26.774088541666668,33.41801961263021,43.5028076171875,39.71735636393229,34.36406453450521,4.0823618570963545,1.4794667561848958,0.8131663004557291,3.5235087076822915,23.249308268229168,31.95635477701823
165,976.0,32.2729746500651,3.8998921712239585,1.5239715576171875,0.8411407470703125,3.551483154296875,33.09822082519531,41.539510091145836,39.00273640950521,23.903528849283855,22.307078043619793,3.9583841959635415,1.1997222900390625,0.7298787434895834,3.3467610677083335,30.614217122395832,40.03715515136719
166,977.0,24.923324584960938,3.985722859700521,1.0789235432942708,0.7635752360026041,3.2958984375,36.1785888671875,43.5479482014974,27.379353841145832,22.647857666015625,22.32042948404948,3.849029541015625,1.5697479248046875,0.6262461344401041,3.4465789794921875,35.79139709472656,30.741373697916668
167,978.0,28.453826904296875,3.9660135904947915,1.338958740234375,0.8322397867838541,3.3353169759114585,38.4368896484375,32.41539001464844,30.156453450520832,29.572804768880207,28.539657592773438,4.21142578125,1.4139811197916667,0.8500417073567709,3.447850545247396,30.609130859375,24.74530537923177
168,979.0,36.96378072102865,3.8706461588541665,1.3459523518880208,0.9015401204427084,3.30352783203125,31.892140706380207,31.732559204101562,37.52263387044271,39.1699473063151,37.08521525065104,4.147847493489583,1.2766520182291667,0.8780161539713541,3.4732818603515625,22.76929219563802,28.634389241536457
169,980.0,37.78966267903646,3.849665323893229,1.3224283854166667,0.728607177734375,3.4014383951822915,28.353373209635418,37.51436869303385,43.81243387858073,32.18205769856771,28.065999348958332,3.520965576171875,1.331329345703125,0.9409586588541666,3.2869974772135415,25.47136942545573,37.32935587565104
170,981.0,26.84338887532552,4.001617431640625,1.0840098063151042,0.9326934814453125,3.1986236572265625,34.108479817708336,45.3027089436849,31.929651896158855,21.120071411132812,21.43096923828125,3.697077433268229,1.3631184895833333,0.7807413736979166,3.4809112548828125,33.580780029296875,37.55823771158854
171,982.0,26.467005411783855,3.856023152669271,1.5125274658203125,0.812530517578125,3.4052530924479165,36.59947713216146,37.53026326497396,28.3203125,25.62395731608073,25.083541870117188,3.998438517252604,1.3128916422526042,0.5118052164713541,3.2520294189453125,35.083770751953125,24.618784586588543
172,983.0,31.45917256673177,3.940582275390625,1.1781056722005208,1.0445912679036458,3.4542083740234375,35.6756846110026,30.558268229166668,33.968607584635414,34.71247355143229,33.47969055175781,4.049936930338542,1.4584859212239583,0.6230672200520834,3.4039815266927085,24.75293477376302,25.633494059244793
173,984.0,39.54378763834635,4.144032796223958,1.3567606608072917,0.8036295572916666,3.527959187825521,26.823679606119793,34.151713053385414,43.54731241861979,39.761861165364586,34.702301025390625,4.05120849609375,1.5328725179036458,0.667572021484375,3.424962361653646,22.794723510742188,32.66461690266927
174,985.0,33.28259785970052,3.8159688313802085,1.4451344807942708,0.8366902669270834,3.4802754720052085,28.23956807454427,41.32207234700521,37.783304850260414,22.71270751953125,22.698720296223957,3.9463043212890625,1.2989044189453125,1.0267893473307292,3.3512115478515625,27.814229329427082,39.957682291666664
175,986.0,25.749842325846355,3.887176513671875,1.2410481770833333,0.6999969482421875,3.506342569986979,36.590576171875,42.83587137858073,27.162551879882812,22.452672322591145,22.478739420572918,3.956476847330729,1.3891855875651042,0.7686614990234375,3.529230753580729,36.7743174235026,30.1055908203125
176,987.0,28.685887654622395,3.665924072265625,1.4667510986328125,1.1164347330729167,3.5152435302734375,39.48847452799479,31.374613444010418,29.851277669270832,29.613494873046875,29.13220723470052,4.016876220703125,0.8761088053385416,0.8055369059244791,3.3200581868489585,31.52020772298177,24.580637613932293
177,988.0,36.916097005208336,4.0963490804036455,1.1857350667317708,0.8792877197265625,3.4917195638020835,32.11275736490885,31.033833821614582,37.976582845052086,39.46558634440104,37.0782216389974,4.044850667317708,1.2149810791015625,0.8398691813151041,3.4268697102864585,23.022969563802082,27.996063232421875
178,989.0,37.808736165364586,3.769556681315104,1.4502207438151042,0.888824462890625,3.5654703776041665,29.86907958984375,36.8188222249349,43.894449869791664,31.769434611002605,27.698516845703125,3.9545694986979165,1.4565785725911458,0.9256998697916666,3.2323201497395835,26.376724243164062,37.109375
179,990.0,27.20324198404948,4.131317138671875,1.1609395345052083,0.8106231689453125,3.5858154296875,33.20121765136719,44.43677266438802,31.168619791666668,20.493189493815105,21.371205647786457,3.7708282470703125,1.2181599934895833,0.8424123128255209,3.5006205240885415,33.08931986490885,37.242889404296875
180,991.0,25.712331136067707,3.9889017740885415,1.41143798828125,0.7998148600260416,3.554662068684896,39.16613260904948,38.23407491048177,27.550379435221355,25.138219197591145,24.753570556640625,3.9081573486328125,1.0992685953776042,0.9263356526692709,3.5502115885416665,36.66559855143229,25.3448486328125
181,992.0,32.71611531575521,3.970464070638021,1.3682047526041667,0.8157094319661459,3.410975138346354,33.18341573079427,31.020482381184895,32.65953063964844,34.0728759765625,33.88150533040365,4.0556589762369795,1.3612111409505208,0.9797414143880209,3.4383138020833335,23.089090983072918,26.05756123860677
182,993.0,39.22843933105469,3.95965576171875,1.3516743977864583,0.957489013671875,3.6176045735677085,28.617223103841145,34.31065877278646,43.23259989420573,39.6429697672526,34.243265787760414,3.7943522135416665,1.2645721435546875,0.7998148600260416,3.4580230712890625,23.993810017903645,32.75362650553385
183,994.0,31.823476155598957,3.66973876953125,1.2842814127604167,0.6230672200520834,3.299713134765625,29.949188232421875,41.501363118489586,38.660685221354164,23.14440409342448,21.882375081380207,3.9730072021484375,1.2334187825520833,1.155853271484375,3.4656524658203125,28.848012288411457,40.09246826171875
184,995.0,25.040944417317707,3.6417643229166665,1.5360514322916667,0.8602142333984375,3.330866495768229,35.959879557291664,43.299357096354164,27.394612630208332,22.52642313639323,22.05657958984375,3.928502400716146,1.2448628743489583,0.67901611328125,3.4497578938802085,36.88875834147135,30.157725016276043
185,996.0,27.999242146809895,4.0035247802734375,1.3573964436848958,0.7305145263671875,3.444035847981771,37.677764892578125,31.495412190755207,30.569076538085938,30.138015747070312,28.360366821289062,3.9736429850260415,1.2811024983723958,0.6631215413411459,3.5381317138671875,29.977162679036457,24.216969807942707
186,997.0,36.67259216308594,4.032135009765625,1.0204315185546875,0.9937286376953125,3.4612019856770835,31.597137451171875,31.27288818359375,37.91046142578125,39.86040751139323,36.93962097167969,3.575007120768229,1.2073516845703125,0.9733835856119791,3.4694671630859375,22.795359293619793,28.39342753092448
187,998.0,37.89329528808594,4.0772755940755205,1.50299072265625,0.8557637532552084,3.619511922200521,26.894887288411457,37.11382548014323,43.92814636230469,31.630833943684895,27.774810791015625,3.9545694986979165,1.4521280924479167,0.8360544840494791,3.391901652018229,25.260289510091145,37.570953369140625
188,999.0,25.87572733561198,3.91387939453125,1.2772878011067708,0.9485880533854166,3.4465789794921875,34.235636393229164,44.63895161946615,31.629562377929688,21.09209696451823,21.01580301920573,3.6036173502604165,1.4705657958984375,0.7228851318359375,3.1674702962239585,34.12755330403646,36.426544189453125
189,1000.0,24.936676025390625,3.7104288736979165,1.40380859375,0.7483164469401041,3.3283233642578125,38.11963399251302,36.692301432291664,28.764088948567707,26.007970174153645,24.224599202473957,3.7053426106770835,1.3624827067057292,1.0534922281901042,3.161748250325521,35.75325012207031,24.500528971354168
190,1001.0,31.212488810221355,4.1319529215494795,1.2289683024088542,0.9848276774088541,3.3931732177734375,33.03082784016927,30.267715454101562,34.558614095052086,35.28594970703125,33.01239013671875,4.033406575520833,1.1545817057291667,0.8246103922526041,3.4434000651041665,22.94476826985677,25.498072306315105
191,1002.0,38.61045837402344,3.741582234700521,1.1628468831380208,0.8068084716796875,3.5069783528645835,28.322219848632812,34.20702616373698,43.45512390136719,39.55268859863281,33.6462656656901,3.9227803548177085,1.3497670491536458,0.9009043375651041,3.394444783528646,23.924509684244793,33.0352783203125
192,1003.0,31.297047932942707,3.9882659912109375,1.1202494303385417,0.9295145670572916,3.322601318359375,29.909133911132812,41.89745585123698,38.36504618326823,23.01343282063802,21.914164225260418,4.0480295817057295,1.0922749837239583,0.9034474690755209,3.5489400227864585,28.799692789713543,40.11217753092448
193,1004.0,25.354385375976562,4.0950775146484375,1.19781494140625,0.8862813313802084,3.5222371419270835,34.65588887532552,42.86766052246094,27.559280395507812,22.642771402994793,22.385915120442707,3.7625630696614585,1.1749267578125,0.8443196614583334,3.6036173502604165,36.13408406575521,29.46790059407552
194,1005.0,28.361002604166668,3.8960774739583335,1.2149810791015625,1.0026295979817708,3.4662882486979165,39.080301920572914,31.0211181640625,30.536651611328125,29.598236083984375,29.038747151692707,4.130045572916667,1.1234283447265625,1.0166168212890625,3.558476765950521,30.679066975911457,24.340311686197918
195,1006.0,36.06351216634115,3.9583841959635415,1.2391408284505208,0.9511311848958334,3.3747355143229165,30.659993489583332,31.819661458333332,38.65178426106771,40.57184855143229,36.37123107910156,3.993988037109375,1.354217529296875,1.0903676350911458,3.405888875325521,22.541046142578125,28.786977132161457
196,1007.0,37.139892578125,4.0543874104817705,1.3796488444010417,0.8462270100911459,3.299713134765625,26.901880900065105,37.45079040527344,44.21106974283854,31.363169352213543,26.884078979492188,3.993988037109375,1.323699951171875,0.7686614990234375,3.323237101236979,24.812062581380207,37.41455078125
197,1008.0,25.571187337239582,4.0963490804036455,1.2919108072916667,0.9320576985677084,3.268559773763021,31.874338785807293,44.36937967936198,30.17743428548177,20.729700724283855,21.270751953125,4.1853586832682295,1.2798309326171875,0.8303324381510416,3.5463968912760415,32.70530700683594,36.303202311197914
198,1009.0,28.326670328776043,3.8426717122395835,1.01470947265625,1.0280609130859375,3.570556640625,36.280314127604164,36.387125651041664,25.84075927734375,24.320602416992188,25.587717692057293,3.936767578125,1.2950897216796875,0.7750193277994791,3.208796183268229,34.83772277832031,24.213790893554688
199,1010.0,31.01666768391927,3.8973490397135415,1.3147989908854167,0.8296966552734375,3.4929911295572915,38.00010681152344,30.831019083658855,33.16434224446615,34.42064921061198,32.95771280924479,4.28009033203125,1.3071695963541667,0.9740193684895834,3.5762786865234375,25.977452596028645,25.793711344401043
200,1011.0,39.16486104329427,3.952662150065104,1.4254252115885417,0.8494059244791666,3.5158793131510415,29.076894124348957,34.656524658203125,43.33368937174479,39.306640625,33.754984537760414,3.575007120768229,1.46484375,0.9562174479166666,3.528594970703125,23.8189697265625,33.345540364583336
201,1012.0,33.29340616861979,3.7320454915364585,1.2149810791015625,0.8907318115234375,3.3124287923177085,29.903411865234375,42.322794596354164,36.12518310546875,21.64141337076823,22.635142008463543,4.056294759114583,1.1761983235677083,0.8958180745442709,3.4275054931640625,28.909047444661457,39.96149698893229
202,1013.0,24.92205301920573,4.275004069010417,1.4979044596354167,0.823974609375,3.4389495849609375,35.40356953938802,42.57392883300781,27.086893717447918,22.726058959960938,22.354761759440105,3.525416056315104,1.3268788655598958,0.8532206217447916,3.5336812337239585,36.71964009602865,29.53020731608073
203,1014.0,28.106689453125,3.8553873697916665,1.4158884684244792,0.9237925211588541,3.597895304361979,37.40056355794271,30.82593282063802,30.815760294596355,30.025482177734375,28.748194376627605,4.0365854899088545,1.247406005859375,0.926971435546875,3.238677978515625,29.080708821614582,24.372100830078125
204,1015.0,35.7507069905599,4.0060679117838545,1.0840098063151042,0.8786519368489584,3.3664703369140625,27.605692545572918,31.418482462565105,39.07903035481771,40.676116943359375,36.08576456705729,3.8960774739583335,1.3402303059895833,0.9295145670572916,3.497441609700521,20.745595296223957,29.274622599283855
205,1016.0,36.89002990722656,3.9126078287760415,1.3993581136067708,0.8169809977213541,3.536224365234375,26.055653889973957,37.53344217936198,44.5556640625,31.10822041829427,26.645660400390625,3.673553466796875,1.2461344401041667,0.5741119384765625,3.1534830729166665,24.315516153971355,37.98548380533854
206,1017.0,26.238759358723957,3.9342244466145835,1.3332366943359375,0.8214314778645834,3.1674702962239585,32.5768788655599,44.03114318847656,30.705769856770832,21.204630533854168,21.710713704427082,4.1281382242838545,1.2677510579427083,0.9822845458984375,3.299713134765625,33.373514811197914,35.9338124593099
207,1018.0,26.034037272135418,3.8846333821614585,1.3370513916015625,0.7152557373046875,3.501256306966146,38.373311360677086,36.04316711425781,28.411865234375,26.058197021484375,24.942398071289062,3.7968953450520835,1.4750162760416667,0.9282430013020834,3.369013468424479,35.59557596842448,24.175643920898438
208,1019.0,31.839370727539062,4.0238698323567705,1.220703125,0.8843739827473959,3.2183329264322915,36.23644510904948,30.341466267903645,34.06333923339844,35.43980916341146,33.92346700032552,3.978093465169271,1.3211568196614583,0.7406870524088541,3.368377685546875,24.847666422526043,25.796890258789062
209,1020.0,39.4140879313151,3.8967132568359375,1.3135274251302083,0.8678436279296875,3.3779144287109375,28.753916422526043,35.503387451171875,43.947855631510414,39.43316141764323,33.040364583333336,4.009246826171875,1.6078948974609375,0.7870992024739584,3.258387247721354,24.072011311848957,33.84590148925781
210,1021.0,31.115214029947918,3.9151509602864585,1.5570322672526042,0.8881886800130209,3.2958984375,31.263351440429688,42.59554545084635,38.806915283203125,23.22832743326823,21.45830790201823,3.8890838623046875,1.0814666748046875,0.9396870930989584,3.5413106282552085,29.771804809570312,40.316263834635414
211,1022.0,25.075912475585938,4.1179656982421875,1.3224283854166667,0.965118408203125,3.3969879150390625,36.23517354329427,42.27002461751302,27.500152587890625,23.249308268229168,22.424697875976562,3.838221232096354,1.7026265462239583,0.804901123046875,3.594080607096354,37.801106770833336,28.868357340494793
212,1023.0,28.76599629720052,4.095713297526042,1.2410481770833333,0.9479522705078125,3.5858154296875,36.63762410481771,30.767440795898438,30.655543009440105,30.304590861002605,29.20977274576823,4.0429433186848955,1.1590321858723958,0.9104410807291666,3.2170613606770835,28.440475463867188,24.617513020833332
213,1024.0,36.23771667480469,4.03594970703125,1.2734731038411458,0.8131663004557291,3.4650166829427085,29.809951782226562,31.4178466796875,39.066314697265625,40.59537251790365,36.47613525390625,3.913243611653646,1.3243357340494792,0.8392333984375,3.4656524658203125,22.145589192708332,28.920491536458332
214,1025.0,39.10191853841146,3.9806365966796875,1.4158884684244792,0.8538564046223959,3.5419464111328125,27.551015218098957,37.96831766764323,42.19818115234375,29.4189453125,27.80914306640625,4.076639811197917,1.25885009765625,0.7222493489583334,3.2908121744791665,25.34929911295573,38.060506184895836
215,1026.0,25.816599527994793,4.0785471598307295,1.186370849609375,0.774383544921875,3.388086954752604,34.35516357421875,44.704437255859375,30.076980590820312,20.928064982096355,21.507898966471355,4.150390625,1.4438629150390625,0.8195241292317709,3.283818562825521,34.305572509765625,35.72209676106771
216,1027.0,25.297800699869793,3.3582051595052085,1.3554890950520833,0.74005126953125,3.387451171875,37.35478719075521,35.504659016927086,28.48052978515625,26.042938232421875,24.89153544108073,3.833770751953125,1.6040802001953125,0.8195241292317709,3.299713134765625,35.0945790608724,23.817698160807293
217,1028.0,31.609217325846355,3.913243611653646,1.3713836669921875,0.988006591796875,3.245671590169271,34.7143809000651,30.583699544270832,34.57323710123698,35.61210632324219,33.52928161621094,3.8731892903645835,1.0395050048828125,0.8042653401692709,3.398259480794271,23.358662923177082,26.091893513997395
218,1029.0,38.936614990234375,3.54766845703125,1.3510386149088542,0.9199778238932291,3.5839080810546875,30.0140380859375,34.62918599446615,44.2358652750651,39.22080993652344,33.13382466634115,3.974278767903646,1.22833251953125,0.7737477620442709,3.3747355143229165,24.862289428710938,33.376057942708336
219,1030.0,30.935287475585938,4.0264129638671875,1.2563069661458333,0.9167989095052084,3.7104288736979165,32.31493631998698,42.691548665364586,37.68157958984375,22.292455037434895,21.60199483235677,3.861109415690104,1.2734731038411458,0.8627573649088541,3.245671590169271,30.45654296875,39.67730204264323
220,1031.0,24.8565673828125,4.027048746744792,1.4209747314453125,1.0509490966796875,3.4319559733072915,36.72218322753906,42.2979990641276,27.231216430664062,23.321787516276043,22.449493408203125,4.033406575520833,1.2257893880208333,0.9593963623046875,3.467559814453125,37.432352701822914,28.650283813476562
221,1032.0,29.205322265625,3.913243611653646,1.4559427897135417,0.7069905598958334,3.3359527587890625,39.88456726074219,31.082789103190105,30.508041381835938,30.340830485026043,29.956817626953125,3.967920939127604,1.2118021647135417,0.6554921468098959,3.192265828450521,30.14691670735677,24.710973103841145
222,1033.0,36.43671671549479,4.224141438802083,1.30462646484375,0.7635752360026041,3.5222371419270835,28.839747111002605,31.71857198079427,39.400736490885414,40.988922119140625,36.0253651936849,4.032135009765625,1.2804667154947917,0.7718404134114584,3.314336140950521,22.009531656901043,29.074986775716145
223,1034.0,36.98285420735677,4.0175120035807295,1.2995402018229167,0.8780161539713541,3.2901763916015625,26.534398396809895,38.00010681152344,43.99299621582031,30.240376790364582,26.109695434570312,3.9316813151041665,1.3739267985026042,0.7330576578776041,3.1789143880208335,24.99834696451823,37.67585754394531
224,1035.0,27.194976806640625,4.144032796223958,1.129150390625,1.1068979899088542,3.3238728841145835,29.2205810546875,44.30516560872396,28.301239013671875,20.089467366536457,21.95294698079427,4.37164306640625,1.3631184895833333,0.74005126953125,3.5266876220703125,31.301498413085938,35.63054402669271
225,1036.0,26.070276896158855,3.79180908203125,1.3217926025390625,0.7883707682291666,3.636042277018229,40.35631815592448,34.66796875,28.084437052408855,26.086807250976562,25.175094604492188,3.848393758138021,1.3783772786458333,0.9263356526692709,3.5349527994791665,37.04961140950521,23.488998413085938
226,1037.0,31.41466776529948,4.1751861572265625,1.453399658203125,0.8570353190104166,3.2793680826822915,34.96678670247396,30.228296915690105,34.366607666015625,36.21991475423177,33.734639485677086,4.187266031901042,1.5773773193359375,0.858306884765625,3.4383138020833335,23.612340291341145,25.887171427408855
227,1038.0,39.006551106770836,3.7250518798828125,1.3434092203776042,0.8595784505208334,3.7822723388671875,29.573440551757812,34.38568115234375,44.375101725260414,39.136250813802086,32.421112060546875,3.77655029296875,1.5519460042317708,0.7686614990234375,3.464380900065104,24.787267049153645,33.31820170084635
228,1039.0,30.138651529947918,4.1573842366536455,1.5875498453776042,0.7273356119791666,3.548304239908854,28.623580932617188,42.467753092447914,37.921905517578125,22.475560506184895,20.821889241536457,4.2247772216796875,1.4254252115885417,1.0210673014322917,3.4389495849609375,28.378804524739582,39.65187072753906
229,1040.0,24.48272705078125,4.1154225667317705,1.5080769856770833,1.453399658203125,3.414154052734375,34.88349914550781,41.64695739746094,27.197519938151043,22.967020670572918,22.290547688802082,3.8967132568359375,1.3497670491536458,0.377655029296875,3.3620198567708335,36.7431640625,28.634389241536457
230,1041.0,28.746287027994793,3.9304097493489585,1.3090769449869792,0.9212493896484375,3.4961700439453125,35.7824961344401,30.096054077148438,30.609130859375,30.607223510742188,29.778162638346355,3.826777140299479,1.3402303059895833,0.8818308512369791,3.398259480794271,27.764002482096355,24.18200174967448
231,1042.0,36.951700846354164,3.978093465169271,1.2111663818359375,1.0484059651692708,3.384272257486979,27.887980143229168,31.94745381673177,41.3824717203776,42.33868916829427,36.275227864583336,3.9494832356770835,1.2601216634114583,1.0306040445963542,3.524144490559896,21.16076151529948,29.273351033528645
232,1043.0,36.60710652669271,3.7981669108072915,1.4921824137369792,0.8023579915364584,3.539403279622396,29.047648111979168,37.136077880859375,44.21806335449219,29.815038045247395,26.055018107096355,3.72314453125,0.8627573649088541,0.5588531494140625,3.2399495442708335,26.537577311197918,37.65233357747396
233,1044.0,27.266184488932293,4.021962483723958,1.3001759847005208,0.8265177408854166,3.0949910481770835,31.836827596028645,44.5868174235026,27.886072794596355,20.315806070963543,21.9879150390625,4.009246826171875,1.3828277587890625,0.8716583251953125,3.437678019205729,33.36461385091146,34.99412536621094
234,1045.0,26.14593505859375,4.065195719401042,1.4139811197916667,0.8481343587239584,3.4739176432291665,36.1321767171224,34.778594970703125,27.996063232421875,26.424407958984375,25.545756022135418,3.903071085611979,1.2912750244140625,1.1730194091796875,3.5343170166015625,34.21211242675781,23.886362711588543
235,1046.0,32.544453938802086,3.91387939453125,1.5850067138671875,0.7572174072265625,3.291447957356771,33.060709635416664,30.019124348958332,33.93681844075521,36.539713541666664,34.11547342936198,3.8744608561197915,1.2747446695963542,0.8710225423177084,3.4688313802083335,22.726694742838543,25.917689005533855
236,1047.0,39.71672058105469,3.8820902506510415,1.495361328125,0.743865966796875,3.4885406494140625,26.8402099609375,35.16960144042969,43.95484924316406,38.29828898111979,32.2418212890625,3.9240519205729165,1.1952718098958333,0.9307861328125,3.3817291259765625,23.337046305338543,34.18095906575521
237,1048.0,29.97144063313802,3.962834676106771,1.2906392415364583,1.0089874267578125,3.3505757649739585,30.525843302408855,42.91534423828125,37.722269694010414,21.917978922526043,20.971298217773438,4.0035247802734375,1.4044443766276042,0.782012939453125,3.387451171875,29.604593912760418,39.4751230875651
238,1049.0,26.872634887695312,3.9342244466145835,1.3624827067057292,0.77056884765625,3.409703572591146,34.54462687174479,41.2909189860026,25.903065999348957,22.074381510416668,23.824691772460938,3.8547515869140625,1.2620290120442708,0.8233388264973959,3.367741902669271,35.74816385904948,28.303146362304688
239,1050.0,29.481887817382812,3.8121541341145835,1.4235178629557292,0.8061726888020834,3.353118896484375,37.75914510091146,30.89141845703125,30.192057291666668,30.007044474283855,29.937744140625,3.9215087890625,1.3224283854166667,0.6643931070963541,3.3435821533203125,28.97326151529948,24.888356526692707
240,1051.0,38.1476084391276,3.941218058268229,1.0617574055989583,0.8589426676432291,3.319422403971354,28.811136881510418,32.381693522135414,38.79419962565104,40.70727030436198,36.692301432291664,4.0035247802734375,1.4909108479817708,0.8945465087890625,3.403345743815104,22.2320556640625,29.70441182454427
241,1052.0,35.91283162434896,3.9539337158203125,1.2296040852864583,0.9835561116536459,3.5146077473958335,26.473363240559895,38.309733072916664,43.79971822102865,29.596964518229168,25.396347045898438,3.91387939453125,1.1437733968098958,0.7457733154296875,3.4421284993489585,25.076548258463543,37.97022501627604
242,1053.0,27.379353841145832,3.9730072021484375,1.163482666015625,0.9403228759765625,3.2552083333333335,32.59595235188802,44.23650105794271,27.82758076985677,20.171483357747395,22.28864034016927,4.0035247802734375,1.4146169026692708,0.8500417073567709,3.36456298828125,33.35762023925781,34.95343526204427
243,1054.0,27.055740356445312,3.753662109375,1.4292399088541667,0.4564921061197917,3.5463968912760415,36.13154093424479,34.42573547363281,27.378082275390625,26.048024495442707,26.240030924479168,3.7714640299479165,1.3612111409505208,0.8347829182942709,3.429412841796875,33.8751475016276,23.430506388346355
244,1055.0,34.08940633138021,3.788630167643229,1.1590321858723958,0.5925496419270834,3.430048624674479,31.59332275390625,29.795328776041668,32.351175944010414,35.33172607421875,34.73599751790365,4.002888997395833,1.2830098470052083,1.010894775390625,3.386815388997396,21.577835083007812,25.789260864257812
245,1056.0,38.815816243489586,3.773371378580729,1.28173828125,0.7648468017578125,3.749847412109375,27.14856465657552,35.27069091796875,43.74249776204427,37.990570068359375,32.55017598470052,3.883997599283854,1.125335693359375,0.9663899739583334,3.4198760986328125,23.40380350748698,34.28077697753906
246,1057.0,30.47943115234375,3.742218017578125,1.2785593668619792,1.04522705078125,3.310521443684896,30.890146891276043,43.15821329752604,36.16523742675781,21.38964335123698,21.317164103190105,3.99017333984375,1.1761983235677083,0.7616678873697916,3.287633260091146,29.915491739908855,39.92462158203125
247,1058.0,24.86101786295573,4.1459401448567705,1.0814666748046875,0.7947285970052084,3.254572550455729,36.412556966145836,41.13578796386719,27.411142985026043,23.26520284016927,22.901535034179688,3.745396931966146,1.2785593668619792,0.7152557373046875,3.5273234049479165,36.8963877360026,28.003692626953125
248,1059.0,28.934478759765625,3.63922119140625,1.3764699300130208,0.7597605387369791,3.5730997721354165,37.23716735839844,30.172983805338543,31.69568379720052,31.349817911783855,29.70441182454427,3.96728515625,1.4019012451171875,0.7413228352864584,3.2755533854166665,27.990976969401043,24.340311686197918
249,1060.0,36.59375508626302,3.891626993815104,1.1971791585286458,0.835418701171875,3.208160400390625,30.848185221354168,31.1737060546875,40.196736653645836,41.39518737792969,35.82954406738281,4.048665364583333,1.2944539388020833,0.8112589518229166,3.6265055338541665,23.179372151692707,29.004414876302082
250,1061.0,35.70747375488281,3.861109415690104,1.3758341471354167,0.9918212890625,3.44085693359375,29.100418090820312,38.20482889811198,43.55494181315104,29.207865397135418,25.451024373372395,3.707249959309896,1.5163421630859375,0.7839202880859375,3.2138824462890625,26.924769083658855,38.082122802734375
251,1062.0,25.404612223307293,4.1077931722005205,1.1660257975260417,0.7839202880859375,3.619511922200521,30.768712361653645,44.57283020019531,29.18243408203125,21.5911865234375,21.20208740234375,4.1879018147786455,1.2753804524739583,0.7877349853515625,3.3276875813802085,32.627105712890625,34.83899434407552
252,1063.0,26.152292887369793,3.730138142903646,1.4540354410807292,0.7928212483723959,3.2971700032552085,36.159515380859375,34.09004211425781,28.176625569661457,26.56237284342448,25.730133056640625,3.703435262044271,1.2296040852864583,0.949859619140625,3.440221150716146,33.44154357910156,23.424784342447918
253,1064.0,32.442728678385414,4.0187835693359375,1.2289683024088542,0.8862813313802084,3.212610880533854,33.84590148925781,29.626210530598957,35.369873046875,37.189483642578125,34.27696228027344,3.906885782877604,1.2213389078776042,1.0903676350911458,3.4777323404947915,23.138682047526043,25.74602762858073
254,1065.0,38.60028584798177,3.758112589518229,1.4750162760416667,0.8074442545572916,3.4885406494140625,31.183242797851562,34.06397501627604,45.09607950846354,38.48393758138021,31.798044840494793,3.6633809407552085,1.5316009521484375,0.8449554443359375,3.5947163899739585,25.896708170572918,33.266703287760414
255,1066.0,28.666178385416668,3.8350423177083335,1.346588134765625,0.6720225016276041,3.4472147623697915,32.427469889322914,42.56439208984375,37.233988444010414,21.910349527994793,20.147959391276043,3.9545694986979165,0.9892781575520834,1.0623931884765625,3.276824951171875,31.114578247070312,39.3524169921875
256,1067.0,24.941126505533855,4.0798187255859375,1.4184315999348958,0.7756551106770834,3.562291463216146,38.1018320719401,40.8477783203125,28.04247538248698,23.603439331054688,22.96002705891927,3.806432088216146,1.35040283203125,0.5982716878255209,3.269831339518229,38.83679707845052,27.838389078776043
257,1068.0,29.410680135091145,3.811518351236979,1.0420481363932292,0.8271535237630209,3.4395853678385415,37.29820251464844,30.634562174479168,32.22338358561198,31.000773111979168,30.063629150390625,4.1370391845703125,1.285552978515625,0.6663004557291666,3.30352783203125,27.718226114908855,24.969100952148438
258,1069.0,36.5753173828125,3.960291544596354,1.3230641682942708,0.7470448811848959,3.280003865559896,30.066808064778645,31.856536865234375,40.004730224609375,41.47020975748698,35.41374206542969,3.7638346354166665,1.1755625406901042,0.6561279296875,3.5947163899739585,23.01788330078125,29.44501241048177
259,1070.0,37.61100769042969,3.68499755859375,1.4470418294270833,0.8487701416015625,3.5158793131510415,29.250462849934895,38.958231608072914,43.46338907877604,28.711954752604168,26.243845621744793,4.09698486328125,1.1844635009765625,0.8595784505208334,3.4014383951822915,27.158737182617188,38.2531483968099
260,1071.0,25.674819946289062,3.9825439453125,1.2048085530598958,0.8557637532552084,3.379185994466146,31.00140889485677,43.58228047688802,28.679529825846355,21.211624145507812,21.528244018554688,4.0251413981119795,0.9657541910807291,0.9104410807291666,3.4929911295572915,32.64427185058594,34.00357564290365
261,1072.0,25.670369466145832,3.8363138834635415,1.445770263671875,0.9352366129557291,3.517786661783854,39.29456075032552,34.82818603515625,28.167724609375,26.507059733072918,25.847117106119793,3.929773966471354,1.3682047526041667,1.0515848795572917,3.485997517903646,35.227457682291664,23.550669352213543
262,1073.0,34.64190165201823,4.0887196858723955,1.3821919759114583,0.6275177001953125,3.3404032389322915,32.29522705078125,30.882517496744793,32.666524251302086,36.00502014160156,35.3851318359375,4.1815439860026045,1.3898213704427083,0.8856455485026041,3.4840901692708335,22.142410278320312,26.655832926432293
263,1074.0,38.19147745768229,3.878911336263021,1.4216105143229167,0.5626678466796875,3.4084320068359375,30.054092407226562,35.982767740885414,44.57791646321615,37.68475850423177,31.24682108561198,3.844579060872396,1.4527638753255208,0.7877349853515625,3.4306844075520835,25.209426879882812,34.4537099202474
264,1075.0,28.566360473632812,4.1904449462890625,1.2454986572265625,0.9600321451822916,3.554662068684896,33.580780029296875,43.67510477701823,36.41700744628906,21.472930908203125,20.200093587239582,4.0175120035807295,1.2219746907552083,0.8716583251953125,3.4077962239583335,31.59777323404948,39.97103373209635
265,1076.0,25.995254516601562,4.044850667317708,1.1653900146484375,0.6650288899739584,3.505071004231771,39.432525634765625,41.2451426188151,27.238210042317707,23.244222005208332,23.70007832845052,3.719329833984375,1.1889139811197917,0.5423227945963541,3.501256306966146,39.31299845377604,27.779897054036457
266,1077.0,29.85699971516927,3.887812296549479,1.2950897216796875,1.0026295979817708,3.3512115478515625,36.93199157714844,30.1971435546875,31.20104471842448,31.492869059244793,30.595143636067707,3.981908162434896,1.3167063395182292,0.8405049641927084,3.2246907552083335,27.37871805826823,24.565378824869793
267,1078.0,38.37712605794271,3.818511962890625,1.3828277587890625,0.6961822509765625,3.203709920247396,28.25164794921875,31.987508138020832,39.25514221191406,40.67866007486979,36.45197550455729,3.712336222330729,1.2454986572265625,0.7883707682291666,3.3442179361979165,22.308349609375,29.8309326171875
268,1079.0,35.66424051920573,4.1370391845703125,1.3071695963541667,0.9752909342447916,3.329594930013021,27.592976888020832,38.83934020996094,43.2891845703125,28.36926778157552,25.489171346028645,4.113515218098958,1.2486775716145833,0.5327860514322916,3.4618377685546875,25.875091552734375,38.42480977376302
269,1080.0,24.822235107421875,4.3112436930338545,1.285552978515625,0.9905497233072916,3.2450358072916665,30.571619669596355,44.10362243652344,28.852462768554688,21.694183349609375,21.452585856119793,4.021962483723958,1.4203389485677083,0.9282430013020834,3.47137451171875,32.86298116048177,34.206390380859375
270,1081.0,25.933583577473957,3.917058308919271,1.3682047526041667,0.9129842122395834,3.605524698893229,35.99739074707031,33.22728474934896,28.635025024414062,26.915868123372395,25.598526000976562,3.9304097493489585,1.3624827067057292,0.9256998697916666,3.361384073893229,33.02001953125,23.066202799479168
271,1082.0,32.3174794514974,4.055023193359375,1.0751088460286458,0.8862813313802084,3.4243265787760415,34.503936767578125,29.839833577473957,36.08830769856771,37.85069783528646,34.221649169921875,4.044850667317708,1.3707478841145833,1.0617574055989583,3.1795501708984375,23.232142130533855,26.451746622721355
272,1083.0,39.1839345296224,3.864288330078125,1.3078053792317708,0.9066263834635416,3.695805867513021,26.072184244791668,34.93690490722656,44.57918802897135,37.76677449544271,31.69695536295573,3.802617390950521,1.1514027913411458,0.7044474283854166,3.658294677734375,22.95684814453125,33.80012512207031
273,1084.0,28.159459431966145,4.048665364583333,1.0770161946614583,0.8627573649088541,3.314971923828125,28.228759765625,42.99100240071615,36.29620869954427,21.729787190755207,20.105997721354168,3.8235982259114585,1.2264251708984375,0.8214314778645834,3.2107035319010415,28.422037760416668,39.04024759928385
274,1085.0,26.022593180338543,4.0556589762369795,1.4527638753255208,0.7317860921223959,3.48663330078125,38.96458943684896,40.15541076660156,27.295430501302082,23.427963256835938,23.375193277994793,3.7244160970052085,1.5284220377604167,0.7565816243489584,3.5273234049479165,38.569132486979164,27.142842610677082
275,1086.0,29.841105143229168,3.7485758463541665,1.3491312662760417,0.8411407470703125,3.3200581868489585,38.95886739095052,30.370712280273438,31.72747294108073,31.759897867838543,30.389785766601562,4.0047963460286455,1.1768341064453125,0.8532206217447916,3.5196940104166665,27.926127115885418,24.49798583984375
276,1087.0,37.7038319905599,3.998438517252604,1.2989044189453125,0.9771982828776041,3.4739176432291665,29.440561930338543,32.51775105794271,40.0549570719401,40.88592529296875,35.57586669921875,3.7587483723958335,1.1412302652994792,0.9009043375651041,3.4929911295572915,23.093541463216145,29.92693583170573
277,1088.0,34.35579935709635,3.9965311686197915,1.3440450032552083,0.8080800374348959,3.383636474609375,29.468536376953125,38.8031005859375,42.87528991699219,27.734120686848957,24.672826131184895,4.055023193359375,1.0293324788411458,0.8684794108072916,3.513971964518229,26.872634887695312,38.59710693359375
278,1089.0,25.082906087239582,3.9265950520833335,1.3205210367838542,0.7940928141276041,3.4192403157552085,35.2166493733724,44.52323913574219,28.636932373046875,21.727879842122395,21.166483561197918,3.9768218994140625,1.1889139811197917,0.8271535237630209,3.6633809407552085,35.404205322265625,34.20130411783854
279,1090.0,26.51659647623698,4.0988922119140625,1.12152099609375,0.7228851318359375,3.353754679361979,40.18847147623698,33.19422403971354,28.61785888671875,26.87835693359375,26.032129923502605,3.8998921712239585,1.2499491373697917,0.87738037109375,3.238677978515625,34.879048665364586,23.309707641601562
280,1091.0,32.44463602701823,4.042307535807292,1.430511474609375,0.743865966796875,3.0924479166666665,31.560897827148438,30.046463012695312,36.19829813639323,38.23089599609375,33.97369384765625,3.990809122721354,1.7032623291015625,0.7928212483723959,3.5953521728515625,22.020339965820312,26.388804117838543
281,1092.0,39.9163564046224,3.6341349283854165,1.2976328531901042,0.8258819580078125,3.4332275390625,28.799692789713543,35.504659016927086,43.67764790852865,36.3457997639974,32.09686279296875,3.7059783935546875,1.3554890950520833,0.8265177408854166,3.4243265787760415,24.954477945963543,34.40157572428385
282,1093.0,27.83203125,3.825505574544271,1.4616648356119792,0.9638468424479166,3.1585693359375,31.119664510091145,43.017069498697914,35.832722981770836,21.80163065592448,20.414352416992188,4.039764404296875,1.1145273844401042,0.8074442545572916,3.291447957356771,30.56653340657552,39.1534169514974
283,1094.0,24.487813313802082,4.0823618570963545,1.3408660888671875,0.9142557779947916,3.463109334309896,37.51436869303385,40.02571105957031,28.631846110026043,24.138132731119793,22.340138753255207,4.0264129638671875,1.2696584065755208,0.8945465087890625,3.630956013997396,37.418365478515625,27.018229166666668
284,1095.0,28.588612874348957,3.913243611653646,1.1577606201171875,0.8087158203125,3.4891764322916665,38.2696787516276,29.773712158203125,31.853357950846355,31.829198201497395,30.059814453125,4.080454508463542,1.2327829996744792,0.873565673828125,3.234227498372396,28.037389119466145,24.424235026041668
285,1096.0,36.800384521484375,4.1077931722005205,1.2995402018229167,0.9352366129557291,3.2329559326171875,29.0069580078125,32.199859619140625,40.531158447265625,40.87956746419271,35.68840026855469,3.7784576416015625,1.3593037923177083,0.667572021484375,3.4662882486979165,22.638320922851562,30.135472615559895
286,1097.0,34.43018595377604,3.7714640299479165,1.2760162353515625,0.6434122721354166,3.4243265787760415,27.688344319661457,39.54760233561198,43.05903116861979,27.771631876627605,24.044036865234375,3.955841064453125,1.2677510579427083,0.911712646484375,3.447850545247396,26.161829630533855,38.8189951578776
287,1098.0,24.687449137369793,4.286448160807292,1.3173421223958333,0.6701151529947916,3.3086140950520835,35.083770751953125,44.04576619466146,28.376261393229168,21.29046122233073,21.174112955729168,3.8363138834635415,1.3586680094401042,0.7184346516927084,3.379185994466146,35.47032674153646,32.91002909342448
288,1099.0,27.70233154296875,3.9850870768229165,1.2652079264322917,0.8525848388671875,3.337860107421875,39.01036580403646,33.58904520670573,27.755101521809895,26.210784912109375,26.770909627278645,4.069010416666667,1.2499491373697917,0.7966359456380209,3.395716349283854,33.52038065592448,23.741404215494793
289,1100.0,32.41284688313802,3.8401285807291665,1.186370849609375,0.8856455485026041,3.3779144287109375,30.995686848958332,29.85064188639323,34.931182861328125,37.48957316080729,34.09004211425781,4.1548411051432295,0.9587605794270834,0.8042653401692709,3.520329793294271,21.300633748372395,26.472727457682293
290,1101.0,38.494110107421875,3.9234161376953125,1.1342366536458333,1.0096232096354167,3.447850545247396,27.661641438802082,35.65533955891927,44.52641805013021,36.43099466959635,30.84246317545573,3.6487579345703125,1.4673868815104167,0.6090799967447916,3.2831827799479165,24.10443623860677,34.703572591145836
291,1102.0,27.870814005533855,3.9126078287760415,1.3605753580729167,0.728607177734375,3.3976236979166665,30.985514322916668,42.91852315266927,34.8351796468099,21.242777506510418,20.500818888346355,3.89862060546875,1.2105305989583333,0.8411407470703125,3.508885701497396,30.640920003255207,39.06122843424479
292,1103.0,25.138219197591145,3.856658935546875,1.3891855875651042,0.9263356526692709,3.2672882080078125,34.05125935872396,39.41917419433594,27.466456095377605,23.663838704427082,23.344675699869793,3.947575887044271,1.3561248779296875,1.1552174886067708,3.566106160481771,35.46714782714844,26.438395182291668
293,1104.0,28.577168782552082,3.841400146484375,1.7147064208984375,0.762939453125,3.3086140950520835,39.22843933105469,30.008951822916668,31.91820780436198,32.41411844889323,29.939651489257812,3.8515726725260415,1.129150390625,0.6898244222005209,3.3779144287109375,28.336842854817707,24.41088358561198
294,1105.0,38.387298583984375,4.001617431640625,1.24359130859375,1.2639363606770833,3.277460734049479,29.030481974283855,32.16107686360677,39.838155110677086,40.52543640136719,36.265055338541664,3.783543904622396,1.4680226643880208,0.762939453125,3.283818562825521,23.485183715820312,30.121485392252605
295,1106.0,34.503936767578125,3.8509368896484375,1.354217529296875,0.9066263834635416,3.367741902669271,30.486424763997395,39.0313466389974,42.71380106608073,27.396519978841145,24.150848388671875,4.048665364583333,0.9784698486328125,0.9746551513671875,3.2482147216796875,27.619679768880207,39.035797119140625
296,1107.0,25.152206420898438,3.9609273274739585,1.3472239176432292,1.4222462972005208,3.444035847981771,35.75897216796875,43.87092590332031,27.315775553385418,21.51044209798177,21.37438456217448,3.7937164306640625,1.5233357747395833,0.8792877197265625,3.5222371419270835,36.04316711425781,33.86116027832031
297,1108.0,25.925954182942707,3.8706461588541665,1.1971791585286458,0.6624857584635416,3.4014383951822915,40.53052266438802,34.23372904459635,28.897603352864582,27.56945292154948,25.938034057617188,3.7867228190104165,1.102447509765625,0.9129842122395834,3.3016204833984375,34.86315409342448,24.343490600585938
298,1109.0,33.68441263834635,3.8172403971354165,1.361846923828125,0.9091695149739584,3.4770965576171875,33.50512186686198,30.748367309570312,35.23953755696615,37.9327138264974,34.89494323730469,4.007975260416667,1.4851888020833333,0.8023579915364584,3.5552978515625,22.86211649576823,27.082443237304688
299,1110.0,38.78148396809896,3.6570231119791665,1.1514027913411458,0.8398691813151041,3.456751505533854,28.938929239908855,35.655975341796875,44.56329345703125,35.74434916178385,31.108856201171875,3.9501190185546875,1.4197031656901042,0.8417765299479166,3.1909942626953125,24.739583333333332,34.59993998209635
300,1111.0,28.351465861002605,3.844579060872396,1.54876708984375,0.9702046712239584,3.284454345703125,32.030741373697914,43.55430603027344,34.701029459635414,20.945231119791668,20.89373270670573,4.0734608968098955,1.0363260904947917,0.6504058837890625,3.451665242513021,31.43310546875,39.10636901855469
301,1112.0,25.138219197591145,3.765741984049479,1.1781056722005208,0.3840128580729167,3.5413106282552085,35.6292724609375,39.94305928548177,26.92095438639323,23.162206013997395,23.575464884440105,3.9265950520833335,1.4298756917317708,0.942230224609375,3.489812215169271,36.427815755208336,26.546478271484375
302,1113.0,29.119491577148438,3.802617390950521,1.2327829996744792,0.6745656331380209,3.333409627278646,35.97132364908854,30.510584513346355,31.687418619791668,32.292683919270836,30.61676025390625,4.2463938395182295,1.0986328125,0.9390513102213541,3.2590230305989585,26.02386474609375,24.96655782063802
303,1114.0,37.11382548014323,3.9215087890625,1.5055338541666667,0.743865966796875,3.3512115478515625,25.840123494466145,32.520294189453125,41.89173380533854,41.033426920572914,35.24589538574219,3.833134969075521,1.262664794921875,0.8055369059244791,3.4268697102864585,21.370569864908855,30.449549357096355
304,1115.0,34.13963317871094,4.0187835693359375,1.2594858805338542,0.7445017496744791,3.4586588541666665,27.700424194335938,39.40391540527344,42.83459981282552,27.108510335286457,23.787816365559895,3.739039103190104,1.1075337727864583,0.7356007893880209,3.28826904296875,26.277542114257812,38.97730509440104
305,1116.0,25.170008341471355,3.89862060546875,1.3472239176432292,0.7457733154296875,3.0148824055989585,37.07758585611979,44.048309326171875,27.9998779296875,21.7742919921875,21.581013997395832,3.880182902018229,1.2486775716145833,0.7635752360026041,3.6532084147135415,36.739349365234375,33.38495890299479
306,1117.0,27.891159057617188,3.5413106282552085,1.2480417887369792,0.7832845052083334,3.3404032389322915,39.77648417154948,33.503214518229164,28.254191080729168,27.099609375,27.234395345052082,3.8776397705078125,1.2162526448567708,0.9072621663411459,3.085454305013021,33.9667002360026,23.871739705403645
307,1118.0,34.639994303385414,3.7167867024739585,1.2365976969401042,0.7769266764322916,3.166834513346354,34.18731689453125,30.707677205403645,35.7214609781901,38.419087727864586,35.31074523925781,3.7708282470703125,1.2461344401041667,0.7279713948567709,3.1414031982421875,23.649851481119793,26.966094970703125
308,1119.0,39.33525085449219,3.41796875,1.0738372802734375,0.5747477213541666,3.1687418619791665,28.408050537109375,35.863240559895836,43.792724609375,35.341898600260414,30.89586893717448,3.513971964518229,1.2760162353515625,0.67901611328125,3.2749176025390625,24.620691935221355,35.22427876790365
309,1120.0,28.509140014648438,3.765741984049479,0.9822845458984375,0.5963643391927084,3.281275431315104,30.366261800130207,43.73486836751302,34.89112854003906,21.410624186197918,21.178563435872395,3.6074320475260415,0.9256998697916666,0.6542205810546875,3.2145182291666665,30.478159586588543,39.16740417480469
310,1121.0,26.659647623697918,3.4777323404947915,1.209259033203125,0.6033579508463541,3.143310546875,40.21263122558594,39.52471415201823,26.57763163248698,23.271560668945312,23.987452189127605,3.5762786865234375,1.0445912679036458,0.4927317301432292,3.311793009440104,38.8482411702474,26.064554850260418
311,1122.0,29.436747233072918,3.3931732177734375,0.8106231689453125,0.5366007486979166,3.1566619873046875,38.79865010579427,30.36816914876302,31.965891520182293,32.55653381347656,30.7769775390625,3.45611572265625,0.732421875,0.4685719807942708,3.086090087890625,27.903238932291668,24.86864725748698
312,1123.0,38.73125712076823,3.528594970703125,1.0420481363932292,0.6262461344401041,3.287633260091146,25.888442993164062,32.47769673665365,40.17448425292969,39.83879089355469,35.75833638509115,3.35693359375,1.2461344401041667,0.553131103515625,3.170013427734375,21.561304728190105,30.038197835286457
313,1124.0,34.299214680989586,3.369013468424479,0.9034474690755209,0.812530517578125,3.280003865559896,28.341929117838543,39.028167724609375,41.2756601969401,26.378631591796875,23.492813110351562,3.3861796061197915,0.7756551106770834,0.7203420003255209,3.0504862467447915,26.792526245117188,38.94742329915365
314,1125.0,24.454116821289062,3.4955342610677085,0.91552734375,0.9746551513671875,3.116607666015625,34.08177693684896,43.96247863769531,27.640660603841145,21.738052368164062,21.53333028157552,3.2558441162109375,0.9371439615885416,0.8932749430338541,3.2978057861328125,35.11873881022135,32.95580546061198
315,1126.0,26.57636006673177,3.502527872721354,1.4902750651041667,1.4260609944661458,3.388086954752604,38.69311014811198,32.77905782063802,29.139200846354168,27.726491292317707,26.38689676920573,3.5196940104166665,1.4731089274088542,1.3796488444010417,3.08990478515625,33.0352783203125,23.996988932291668
316,1127.0,33.14908345540365,3.9316813151041665,2.8521219889322915,2.6836395263671875,2.909978230794271,32.129923502604164,30.494054158528645,36.13090515136719,38.32880655924479,34.97632344563802,3.9768218994140625,2.5393168131510415,2.642949422200521,3.188451131184896,22.445042928059895,27.147293090820312
317,1128.0,38.65623474121094,4.1751861572265625,2.9697418212890625,2.6575724283854165,3.161748250325521,28.824488321940105,35.97195943196615,43.20335388183594,34.41747029622396,31.110127766927082,4.3176015218098955,3.0231475830078125,2.7179718017578125,3.2100677490234375,24.916966756184895,34.99476114908854
318,1129.0,28.085072835286457,5.040486653645833,3.685633341471354,3.547032674153646,3.157933553059896,28.928120930989582,43.451944986979164,34.16887919108073,21.027247111002605,21.245320638020832,5.185445149739583,3.768285115559896,3.4395853678385415,3.0651092529296875,29.99432881673177,38.724263509114586
319,1130.0,24.925867716471355,5.3234100341796875,4.262288411458333,3.8350423177083335,3.426233927408854,36.59184773763021,39.24878438313802,28.099695841471355,24.244308471679688,23.40253194173177,5.25665283203125,4.5185089111328125,4.102071126302083,3.445307413736979,36.38521830240885,26.398340861002605
320,1131.0,29.383341471354168,5.3081512451171875,4.4790903727213545,3.1115214029947915,3.24249267578125,34.50330098470052,30.567169189453125,31.958262125651043,32.36262003580729,30.3955078125,5.6629180908203125,4.604339599609375,3.1903584798177085,3.2444000244140625,25.531768798828125,25.185902913411457
321,1132.0,36.5746815999349,5.133310953776042,4.301706949869792,2.815882364908854,3.170013427734375,28.97326151529948,33.640543619791664,40.771484375,39.211273193359375,34.36978658040365,5.0614674886067705,4.4600168863932295,2.644220987955729,3.066380818684896,23.94549051920573,30.979156494140625
322,1133.0,33.66661071777344,4.7944386800130205,4.667917887369792,3.2596588134765625,3.3473968505859375,28.72149149576823,39.72752888997396,41.37102762858073,26.86754862467448,24.254480997721355,5.175272623697917,4.41741943359375,3.4923553466796875,3.2679239908854165,27.297337849934895,38.62953186035156
323,1134.0,25.673548380533855,6.203969319661458,3.658930460611979,4.483540852864583,1.8418629964192708,32.35499064127604,42.79263814290365,28.955459594726562,22.846221923828125,22.080739339192707,6.253560384114583,3.9037068684895835,4.347483317057292,1.8367767333984375,33.30675760904948,32.41729736328125
324,1135.0,28.96563212076823,6.6674550374348955,5.1644643147786455,5.4022471110026045,3.6112467447916665,37.47749328613281,33.45807393391927,29.366175333658855,27.899424235026043,27.49951680501302,6.383260091145833,4.8376719156901045,5.4473876953125,3.7174224853515625,31.663258870442707,25.077184041341145
325,1136.0,32.80766805013021,6.9115956624348955,5.1085154215494795,5.817413330078125,5.8091481526692705,32.154083251953125,32.4249267578125,37.34906514485677,38.1622314453125,33.871968587239586,6.6216786702473955,5.185445149739583,5.907694498697917,6.0087839762369795,23.610432942708332,28.51422627766927
326,1137.0,36.43798828125,6.2020619710286455,5.4289499918619795,7.6363881429036455,8.6517333984375,28.03484598795573,35.56378682454427,43.827056884765625,34.929911295572914,29.532750447591145,6.7348480224609375,5.606333414713542,7.897694905598958,8.583704630533854,24.611790974934895,34.56687927246094
327,1138.0,28.730392456054688,7.581075032552083,5.748748779296875,8.387883504231771,9.443283081054688,32.79558817545573,43.17347208658854,35.16705830891927,22.483189900716145,22.137959798177082,7.56072998046875,5.5878957112630205,8.579254150390625,9.604771931966146,31.5093994140625,38.37903340657552
328,1139.0,25.643030802408855,3.627141316731771,5.8472951253255205,12.315750122070312,8.912404378255209,41.73978169759115,39.52789306640625,29.394149780273438,25.598526000976562,24.240493774414062,2.9614766438802085,6.189982096354167,12.271881103515625,8.894602457682291,38.35932413736979,27.147928873697918
329,1140.0,32.26661682128906,6.086985270182292,6.251017252604167,13.352711995442709,10.305404663085938,37.77631123860677,32.2869618733724,32.488505045572914,32.108306884765625,31.667709350585938,6.0278574625651045,5.8676401774088545,13.423919677734375,10.461171468098959,27.967453002929688,26.47844950358073
330,1141.0,37.122090657552086,7.049560546875,6.34765625,14.949798583984375,11.182785034179688,28.099695841471355,32.917022705078125,41.486104329427086,39.41663106282552,33.89167785644531,7.310231526692708,6.30950927734375,14.652252197265625,11.385599772135416,23.527781168619793,30.702590942382812
331,1142.0,33.87578328450521,6.762186686197917,5.9464772542317705,15.977223714192709,11.16943359375,39.16803995768229,40.58011372884115,41.6876475016276,26.803334554036457,24.236679077148438,6.7234039306640625,6.2516530354817705,16.17749532063802,10.911941528320312,33.0956776936849,39.3212636311849
332,1143.0,25.789896647135418,3.6481221516927085,5.9935251871744795,15.768051147460938,11.042912801106771,34.75379943847656,43.08001200358073,28.52948506673177,22.699356079101562,22.272745768229168,3.257115681966146,6.2669118245442705,15.472412109375,11.500676472981771,35.31010945638021,32.17315673828125
333,1144.0,26.679356892903645,3.589630126953125,5.945841471354167,14.184315999348959,11.960347493489584,44.31978861490885,34.149169921875,30.144373575846355,28.44683329264323,26.796340942382812,3.6493937174479165,5.6603749593098955,14.717737833658854,11.774698893229166,35.86514790852865,25.037129720052082
334,1145.0,34.488677978515625,9.339014689127604,5.1364898681640625,15.364329020182291,11.812845865885416,36.89765930175781,32.1038564046224,35.44934590657552,37.58684794108073,34.91783142089844,10.280609130859375,5.3958892822265625,15.265782674153646,11.866251627604166,25.517781575520832,28.292338053385418
335,1146.0,38.10310363769531,10.400772094726562,4.725138346354167,14.596939086914062,12.422561645507812,27.164459228515625,36.3922119140625,44.35157775878906,34.381866455078125,29.685338338216145,10.058720906575521,4.8720041910807295,15.255610148111979,11.915842692057291,24.422327677408855,34.91083780924479
336,1147.0,28.367360432942707,8.979161580403646,3.986994425455729,15.56396484375,11.995951334635416,30.991872151692707,42.83587137858073,34.40284729003906,22.109349568684895,21.98346455891927,9.541829427083334,3.852208455403646,15.642801920572916,12.044906616210938,30.87298075358073,37.75723775227865
337,1148.0,27.50078837076823,8.635838826497396,3.2590230305989585,15.031178792317709,12.526830037434896,35.12255350748698,38.805643717447914,26.86309814453125,23.658116658528645,25.435765584309895,8.431116739908854,2.921422322591146,15.201568603515625,12.206395467122396,34.50457255045573,26.653289794921875
338,1149.0,29.82330322265625,8.351643880208334,2.635955810546875,15.390396118164062,12.421290079752604,35.334269205729164,31.993865966796875,32.07715352376302,32.45862325032552,30.279159545898438,8.598963419596354,2.304712931315104,15.563329060872396,12.355804443359375,26.239395141601562,26.239395141601562
339,1150.0,36.3318125406901,9.557088216145834,1.1959075927734375,15.324274698893229,12.444178263346354,29.784520467122395,33.86370340983073,41.32080078125,39.357503255208336,33.88023376464844,9.209314982096354,1.1393229166666667,15.005111694335938,12.682596842447916,24.499257405598957,31.47443135579427
340,1151.0,34.56687927246094,10.679244995117188,0.4151662190755208,13.376235961914062,12.00103759765625,29.521942138671875,40.973663330078125,40.2075449625651,25.824864705403645,24.328867594401043,10.821660359700521,0.6198883056640625,13.400395711263021,11.880238850911459,28.216044108072918,39.31109110514323
341,1152.0,25.238037109375,6.827036539713542,0.17865498860677084,11.384963989257812,10.602951049804688,34.59803263346354,43.7018076578776,29.791514078776043,23.537953694661457,22.771835327148438,6.785074869791667,0.0400543212890625,11.040369669596354,10.479609171549479,35.15307108561198,32.535552978515625
342,1153.0,27.804056803385418,10.129292805989584,0.24922688802083334,9.888331095377604,9.890874226888021,42.621612548828125,32.96852111816406,30.405044555664062,28.879801432291668,27.24901835123698,10.087966918945312,0.095367431640625,9.9029541015625,9.592056274414062,34.838358561197914,24.766286214192707
343,1154.0,34.32909647623698,10.643641153971354,0.377655029296875,8.275985717773438,9.353001912434896,32.854715983072914,31.829833984375,37.24479675292969,38.6498769124349,34.434000651041664,10.548273722330729,0.3795623779296875,8.022944132486979,9.644190470377604,24.068196614583332,28.006871541341145
344,1155.0,37.71527608235677,10.555903116861979,0.7349650065104166,8.001327514648438,9.481430053710938,28.195699055989582,35.845438639322914,43.82451375325521,34.02582804361979,29.923121134440105,10.5133056640625,0.9562174479166666,8.302052815755209,9.40704345703125,25.08544921875,34.67496236165365
345,1156.0,28.886159261067707,10.829925537109375,1.1806488037109375,9.151458740234375,9.345372517903646,31.049728393554688,42.89817810058594,34.38886006673177,22.278467814127605,22.329966227213543,10.754903157552084,1.4527638753255208,8.914311726888021,9.294509887695312,30.993143717447918,38.02363077799479
346,1157.0,25.915781656901043,10.377248128255209,1.65557861328125,8.906682332356771,9.552637736002604,35.02019246419271,39.29583231608073,28.654734293619793,24.9481201171875,24.33013916015625,10.534922281901041,2.1495819091796875,8.612314860026041,9.450276692708334,34.49885050455729,26.81732177734375
347,1158.0,30.292510986328125,10.250727335611979,2.7643839518229165,4.800160725911458,7.9263051350911455,34.442901611328125,31.705856323242188,33.098856608072914,33.396402994791664,30.60468037923177,10.180155436197916,2.773920694986979,4.6520233154296875,7.8144073486328125,25.2838134765625,25.991439819335938
348,1159.0,36.78067525227865,7.494608561197917,3.8509368896484375,3.712336222330729,5.107879638671875,30.600229899088543,33.0352783203125,42.727152506510414,40.3289794921875,34.20448303222656,7.055918375651042,4.220326741536458,3.8820902506510415,5.133310953776042,24.628321329752605,30.91112772623698
349,1160.0,32.56034851074219,2.300262451171875,5.6781768798828125,5.1949818929036455,4.7702789306640625,30.107498168945312,39.54505920410156,41.71880086263021,26.404698689778645,22.90789286295573,2.529780069986979,5.995432535807292,5.2712758382161455,4.770914713541667,28.352101643880207,38.84442647298177
350,1161.0,25.114695231119793,1.6276041666666667,6.676991780598958,5.301157633463542,4.9304962158203125,38.11327616373698,42.9681142171224,28.63756815592448,23.171106974283855,22.263209025065105,2.158482869466146,6.8136850992838545,5.535125732421875,5.374908447265625,37.03498840332031,32.32383728027344
351,1162.0,27.871449788411457,6.6280364990234375,5.780537923177083,5.550384521484375,6.398518880208333,38.739522298177086,33.25843811035156,30.124664306640625,28.994242350260418,28.003692626953125,6.650288899739583,5.1924387613932295,5.7519276936848955,6.479899088541667,32.28632609049479,24.620691935221355
352,1163.0,33.51020812988281,7.5372060139973955,9.278615315755209,6.3368479410807295,8.160909016927084,32.95707702636719,32.596588134765625,38.11009724934896,39.26722208658854,34.72900390625,7.767995198567708,9.454091389973959,6.655375162760417,8.412679036458334,23.21942647298177,28.606414794921875
353,1164.0,37.43807474772135,9.289423624674479,9.494781494140625,6.5898895263671875,9.294509887695312,25.995890299479168,36.31718953450521,44.734954833984375,34.63617960611979,29.206593831380207,9.683609008789062,9.410222371419271,6.853739420572917,9.295781453450521,23.615519205729168,35.25733947753906
354,1165.0,30.193328857421875,10.268529256184896,9.344736735026041,7.219950358072917,9.055455525716146,30.063629150390625,44.72033182779948,32.15662638346354,19.399642944335938,22.818883260091145,10.359446207682291,9.583791097005209,7.1341196695963545,9.246190388997396,31.25317891438802,39.263407389322914
355,1166.0,25.929768880208332,9.511947631835938,12.286504109700521,9.424209594726562,11.066436767578125,38.52144877115885,38.867950439453125,27.05701192220052,24.25829569498698,24.346033732096355,9.592692057291666,12.26806640625,9.609858194986979,11.02447509765625,36.92309061686198,24.935404459635418
356,1167.0,30.378341674804688,6.941477457682292,12.36724853515625,10.991414388020834,11.263529459635416,38.386027018229164,30.244191487630207,32.76252746582031,34.250895182291664,31.733194986979168,7.04193115234375,12.278238932291666,11.089960734049479,11.118570963541666,26.952107747395832,25.435765584309895
357,1168.0,38.060506184895836,7.752736409505208,12.362162272135416,11.908849080403646,10.042826334635416,35.79012552897135,33.69712829589844,43.149312337239586,40.802001953125,34.870147705078125,7.1563720703125,12.791315714518229,11.774063110351562,9.771982828776041,27.781168619791668,31.644185384114582
358,1169.0,33.724466959635414,8.027394612630209,12.778600056966146,13.142267862955729,9.035746256510416,35.31773885091146,41.0912831624349,40.5432383219401,25.67291259765625,23.811976114908855,8.394877115885416,12.268702189127604,13.433456420898438,9.000778198242188,31.61938985188802,40.28447469075521
359,1170.0,25.713602701822918,4.6138763427734375,11.754353841145834,12.907663981119791,11.638005574544271,43.193817138671875,44.86846923828125,27.886072794596355,22.318522135416668,22.553126017252605,2.8781890869140625,12.362798055013021,12.434641520182291,12.254714965820312,40.44977823893229,32.55589803059896
360,1171.0,29.125213623046875,11.875788370768229,12.080510457356771,13.637542724609375,12.091954549153646,40.82425435384115,33.41801961263021,29.534022013346355,28.415679931640625,28.237660725911457,12.029012044270834,11.740366617838541,13.755162556966146,11.706034342447916,32.894134521484375,24.902979532877605
361,1172.0,34.215291341145836,12.905120849609375,11.582692464192709,13.823191324869791,11.114756266276041,37.5830332438151,31.529744466145832,38.0242665608724,39.27485148111979,34.998575846354164,12.963612874348959,11.510213216145834,13.514200846354166,11.384963989257812,25.702794392903645,28.433481852213543
362,1173.0,37.272135416666664,11.418660481770834,11.715571085611979,13.131459554036459,12.679417928059896,29.190699259440105,35.80029805501302,45.405069986979164,34.5001220703125,29.07880147298177,11.651992797851562,11.624654134114584,13.243357340494791,12.404759724934896,25.57055155436198,35.03863016764323
363,1174.0,27.962366739908855,10.847727457682291,11.017481486002604,14.083226521809896,13.008753458658854,30.59832255045573,43.56829325358073,33.786773681640625,21.068572998046875,22.136688232421875,10.618209838867188,10.552724202473959,13.697942097981771,12.809117635091146,30.91748555501302,38.40446472167969
364,1175.0,27.05828348795573,11.106491088867188,11.055628458658854,12.792587280273438,12.400309244791666,35.89630126953125,39.36767578125,27.69152323404948,24.595896402994793,25.117874145507812,11.350631713867188,11.249542236328125,12.955983479817709,12.829462687174479,35.0494384765625,25.960286458333332
365,1176.0,30.18506368001302,11.456171671549479,10.948816935221354,13.102213541666666,12.417475382486979,33.44599405924479,30.696868896484375,33.08741251627604,34.02010599772135,31.461715698242188,10.987599690755209,11.368433634440104,13.315836588541666,12.576421101888021,24.30280049641927,25.638580322265625
366,1177.0,37.55060831705729,10.92529296875,10.845820109049479,12.528101603190104,12.241999308268229,27.704238891601562,33.41484069824219,42.7239735921224,40.377298990885414,34.734090169270836,10.283152262369791,10.878245035807291,12.437820434570312,12.247721354166666,23.11388651529948,31.719207763671875
367,1178.0,35.776774088541664,8.682886759440104,11.68060302734375,8.658727010091146,10.892868041992188,32.37088521321615,40.55150349934896,39.51581319173177,25.045394897460938,24.621327718098957,8.410771687825521,11.547724405924479,8.759180704752604,10.750452677408854,29.26953633626302,39.947509765625
368,1179.0,25.4669189453125,6.245930989583333,11.292775472005209,6.167093912760417,8.11767578125,35.369873046875,43.61597696940104,26.999155680338543,22.032419840494793,22.07501729329427,5.9019724527994795,11.388142903645834,5.860646565755208,8.052190144856771,35.9954833984375,31.717936197916668
369,1180.0,27.929306030273438,5.4620107014973955,10.294596354166666,5.2153269449869795,6.100972493489583,38.67403666178385,33.84844462076823,29.46027119954427,28.812408447265625,27.579625447591145,5.542755126953125,10.04791259765625,5.353291829427083,5.724589029947917,31.874974568684895,25.190989176432293
370,1181.0,33.85098775227865,5.054473876953125,8.4075927734375,4.5623779296875,4.337310791015625,30.811309814453125,31.449635823567707,38.61300150553385,39.67603047688802,35.152435302734375,5.0106048583984375,8.506139119466146,4.5909881591796875,4.4829050699869795,21.93450927734375,28.025309244791668
371,1182.0,38.22898864746094,4.4097900390625,7.269541422526042,4.868825276692708,3.445307413736979,30.007044474283855,36.015828450520836,44.423421223958336,33.69903564453125,29.280344645182293,4.5013427734375,7.1214040120442705,4.681905110677083,3.540674845377604,26.025772094726562,35.329182942708336
372,1183.0,28.142293294270832,4.4218699137369795,6.3953399658203125,4.7143300374348955,3.372828165690104,35.65152486165365,43.97392272949219,32.811482747395836,20.889918009440105,22.197723388671875,4.6075185139973955,6.4144134521484375,4.4918060302734375,3.1223297119140625,33.69967142740885,38.30591837565104
373,1184.0,25.424957275390625,3.4701029459635415,5.7837168375651045,5.148569742838542,2.934137980143229,38.248697916666664,38.59138488769531,28.863271077473957,25.115331013997395,24.377822875976562,3.402074178059896,5.959828694661458,5.354563395182292,3.0568440755208335,36.03490193684896,26.35637919108073
374,1185.0,30.183792114257812,3.062566121419271,4.5172373453776045,5.4823557535807295,2.712249755859375,36.441802978515625,31.260172526041668,33.08931986490885,33.111572265625,30.57861328125,3.113428751627604,4.099527994791667,5.433400472005208,2.79998779296875,26.475270589192707,25.862375895182293
375,1186.0,36.85696919759115,0.171661376953125,3.733952840169271,5.537668863932292,1.77001953125,29.123306274414062,33.702850341796875,43.54222615559896,40.590922037760414,33.8128407796224,0.24159749348958334,3.7295023600260415,5.2115122477213545,2.121607462565104,24.092356363932293,31.620025634765625
376,1187.0,32.89794921875,1.1132558186848958,2.941767374674479,4.8656463623046875,0.10363260904947917,30.256271362304688,39.52852884928385,41.31189982096354,25.53240458170573,23.122787475585938,0.83160400390625,2.8934478759765625,5.0207773844401045,0.1983642578125,28.452555338541668,39.2615000406901
377,1188.0,25.056203206380207,0.20472208658854166,2.5431315104166665,4.482269287109375,0.15131632486979166,36.654154459635414,43.63187154134115,27.335484822591145,21.746317545572918,22.150675455729168,0.010172526041666666,2.7910868326822915,4.164377848307292,0.15004475911458334,36.7743174235026,31.706492106119793
378,1189.0,27.21722920735677,0.14750162760416666,0.07565816243489583,3.0771891276041665,0.087738037109375,37.43934631347656,33.167521158854164,28.989156087239582,28.577804565429688,27.029037475585938,0.15767415364583334,0.0095367431640625,3.272374471028646,0.24096171061197916,31.149546305338543,24.306615193684895
379,1190.0,33.9972178141276,0.2676645914713542,0.08328755696614583,1.9353230794270833,0.0591278076171875,28.044382731119793,30.289967854817707,38.50873311360677,40.43769836425781,35.50593058268229,0.018437703450520832,0.010172526041666666,1.9467671712239583,0.09791056315104167,19.29473876953125,27.472813924153645
380,1191.0,37.84306844075521,0.041961669921875,0.12334187825520833,1.7477671305338542,0.09409586588541667,26.135762532552082,35.34825642903646,45.70134480794271,33.925374348958336,28.62103780110677,0.006357828776041667,0.293731689453125,1.9429524739583333,0.14050801595052084,23.202896118164062,36.18176778157552
381,1192.0,27.37744649251302,0.0934600830078125,0.1888275146484375,0.858306884765625,0.08074442545572917,31.836827596028645,44.80425516764323,31.10059102376302,18.242518107096355,20.578384399414062,0.015894571940104168,0.1544952392578125,0.7610321044921875,0.016530354817708332,32.346089680989586,39.22716776529948
382,1193.0,24.733861287434895,0.14050801595052084,0.1125335693359375,0.017801920572916668,0.23778279622395834,39.00337219238281,38.380940755208336,25.446573893229168,23.084640502929688,23.79163106282552,0.052134195963541664,0.0171661376953125,0.09791056315104167,0.012715657552083334,37.68221537272135,23.709615071614582
383,1194.0,30.15899658203125,0.050862630208333336,0.0743865966796875,0.1068115234375,0.13605753580729166,36.529541015625,29.211680094401043,30.730565388997395,33.23936462402344,32.57560729980469,0.0095367431640625,0.19963582356770834,0.3134409586588542,0.039418538411458336,24.894078572591145,24.109522501627605
384,1195.0,39.807637532552086,0.08138020833333333,0.20662943522135416,0.16021728515625,0.1373291015625,26.569366455078125,33.46125284830729,43.38900248209635,41.18919372558594,36.228179931640625,0.24350484212239584,0.0057220458984375,0.2797444661458333,0.11889139811197917,21.768569946289062,31.700770060221355
385,1196.0,32.155354817708336,0.12270609537760417,0.13987223307291666,0.23587544759114584,0.052769978841145836,27.88861592610677,40.87130228678385,41.90953572591146,24.679819742838543,21.041234334309895,0.08392333984375,0.164031982421875,0.3674825032552083,0.055948893229166664,27.433395385742188,41.05440775553385
386,1197.0,23.477554321289062,0.24286905924479166,0.1392364501953125,0.3897349039713542,0.13669331868489584,33.2953135172526,44.268290201822914,25.77654520670573,20.720163981119793,20.865122477213543,0.12334187825520833,0.010172526041666666,0.42724609375,0.18819173177083334,35.82572937011719,31.419118245442707
387,1198.0,26.259740193684895,0.08455912272135417,0.056584676106770836,0.675201416015625,0.2193450927734375,38.912455240885414,32.390594482421875,28.80096435546875,28.69415283203125,26.906331380208332,0.133514404296875,0.14050801595052084,0.91552734375,0.039418538411458336,31.833648681640625,23.464202880859375
388,1199.0,34.27950541178385,0.012079874674479166,0.2683003743489583,1.0585784912109375,0.3217061360677083,28.0609130859375,29.618581136067707,38.8482411702474,41.17012023925781,36.609649658203125,0.2841949462890625,0.042597452799479164,1.1336008707682292,0.15767415364583334,19.235610961914062,27.123769124348957
389,1200.0,38.30146789550781,0.035603841145833336,0.07120768229166667,1.7865498860677083,0.030517578125,24.727503458658855,35.603841145833336,46.025594075520836,34.19367472330729,28.656641642252605,0.19772847493489584,0.20599365234375,1.9715627034505208,0.021616617838541668,22.731781005859375,36.04571024576823
390,1201.0,27.14220682779948,0.005086263020833333,0.057856241861979164,2.1991729736328125,0.055948893229166664,30.352274576822918,44.63640848795573,31.134287516276043,18.393198649088543,20.472208658854168,0.026067097981770832,0.0629425048828125,2.3860931396484375,0.22188822428385416,31.79168701171875,38.913726806640625
391,1202.0,24.489720662434895,0.0171661376953125,0.16276041666666666,2.2099812825520835,0.1277923583984375,36.31464640299479,37.68285115559896,26.158650716145832,23.628870646158855,23.729960123697918,0.0362396240234375,0.3941853841145833,2.1120707194010415,0.027338663736979168,36.151885986328125,23.43432108561198
