Time,S1_D1_Red,S2_D2_Red,S3_D3_Red,S4_D4_Red,S5_D5_Red,S6_D6_Red,S7_D7_Red,S8_D8_Red,S1_D1_Ir,S2_D2_Ir,S3_D3_Ir,S4_D4_Ir,S5_D5_Ir,S6_D6_Ir,S7_D7_Ir,S8_D8_Ir
0.0,0.0006357828776041666,0.0006357828776041666,0.0667572021484375,0.027974446614583332,0.016530354817708332,945.9209442138672,1091.3607279459636,848.0383555094401,564.8848215738932,0.0006357828776041666,0.0006357828776041666,0.09663899739583333,0.012715657552083334,0.0591278076171875,607.3258717854818,685.2830251057943
1.0,675.5784352620443,0.020345052083333332,0.024159749348958332,0.029881795247395832,0.0095367431640625,333.0554962158203,409.8072052001953,346.3509877522786,223.8744099934896,444.9609120686849,0.15767415364583334,0.0457763671875,0.11126200358072917,0.06739298502604167,218.57388814290366,278.14483642578125
2.0,270.2210744222005,0.10236104329427083,0.019073486328125,0.015894571940104168,0.08074442545572917,128.2374064127604,176.6503651936849,135.3022257486979,84.35440063476562,175.99932352701822,0.029246012369791668,0.3191630045572917,0.037511189778645836,0.054677327473958336,91.25073750813802,119.99257405598958
3.0,112.55200703938802,0.0324249267578125,0.00762939453125,0.186920166015625,0.2613067626953125,65.7056172688802,80.1684061686198,60.79864501953125,45.11133829752604,77.95397440592448,0.2593994140625,0.12842814127604166,0.08519490559895833,0.021616617838541668,52.87488301595052,51.058451334635414
4.0,60.23279825846354,0.3719329833984375,0.15703837076822916,0.017801920572916668,0.037511189778645836,41.7931874593099,43.86774698893229,43.89381408691406,40.363311767578125,50.58606465657552,0.14432271321614584,0.050226847330729164,0.10744730631510417,0.0629425048828125,27.963638305664062,33.48541259765625
5.0,49.26109313964844,0.037511189778645836,0.23714701334635416,0.0031789143880208335,0.2002716064453125,30.015309651692707,38.8634999593099,47.30224609375,42.05004374186198,40.13506571451823,0.11316935221354167,0.09981791178385417,0.10744730631510417,0.0012715657552083333,24.009068806966145,34.792582194010414
6.0,35.746256510416664,0.019073486328125,0.2848307291666667,0.2619425455729167,0.2873738606770833,30.263264973958332,42.994181315104164,39.93797302246094,23.878733317057293,23.873011271158855,0.023523966471354168,0.23206075032552084,0.0095367431640625,0.2155303955078125,28.585433959960938,41.0620371500651
7.0,26.38562520345052,0.15958150227864584,0.17547607421875,0.09663899739583333,0.08455912272135417,35.19757588704427,44.12523905436198,27.348836263020832,21.924972534179688,22.688547770182293,0.11444091796875,0.125885009765625,0.14813741048177084,0.07502237955729167,35.64262390136719,30.607859293619793
8.0,28.32476298014323,0.22824605305989584,0.015894571940104168,0.052769978841145836,0.0762939453125,38.6358896891276,31.569163004557293,30.025482177734375,28.733571370442707,28.29297383626302,0.1735687255859375,0.3884633382161458,0.13669331868489584,0.13415018717447916,30.557632446289062,23.969014485677082
9.0,37.81318664550781,0.25177001953125,0.0553131103515625,0.20472208658854166,0.06739298502604167,29.092788696289062,30.5023193359375,35.69857279459635,37.876129150390625,37.6898447672526,0.3197987874348958,0.031789143880208336,0.07502237955729167,0.11444091796875,21.05394999186198,27.353922526041668
10.0,38.38666280110677,0.18564860026041666,0.10744730631510417,0.2772013346354167,0.048955281575520836,25.847752888997395,36.39666239420573,43.306986490885414,31.721115112304688,27.926127115885418,0.034332275390625,0.08138020833333333,0.07565816243489583,0.2511342366536458,23.115158081054688,36.273956298828125
11.0,26.944478352864582,0.16085306803385416,0.046412150065104164,0.021616617838541668,0.1964569091796875,31.087239583333332,44.92886861165365,31.335830688476562,19.982020060221355,21.00817362467448,0.12143452962239583,0.0006357828776041666,0.0209808349609375,0.031153361002604168,30.92511494954427,37.71845499674479
12.0,24.811426798502605,0.3604888916015625,0.012079874674479166,0.072479248046875,0.19709269205729166,35.33109029134115,37.20728556315104,26.782989501953125,24.247487386067707,23.639678955078125,0.16021728515625,0.031789143880208336,0.12524922688802084,0.15385945638020834,34.815470377604164,24.552027384440105
13.0,30.549367268880207,0.030517578125,0.16085306803385416,0.049591064453125,0.1506805419921875,35.36033630371094,29.740015665690105,32.56670633951823,33.055623372395836,32.213846842447914,0.19963582356770834,0.00762939453125,0.029246012369791668,0.1010894775390625,24.038950602213543,25.162378946940105
14.0,38.471221923828125,0.31280517578125,0.003814697265625,0.13097127278645834,0.20472208658854166,24.59398905436198,32.92655944824219,43.3203379313151,39.538065592447914,33.90693664550781,0.06421407063802083,0.087738037109375,0.2040863037109375,0.20535786946614584,20.868301391601562,30.923843383789062
15.0,32.15471903483073,0.3255208333333333,0.10553995768229167,0.044504801432291664,0.026067097981770832,25.617599487304688,39.868672688802086,39.333343505859375,24.01415506998698,21.19763692220052,0.0400543212890625,0.11380513509114583,0.019709269205729168,0.209808349609375,25.28826395670573,39.525349934895836
16.0,25.693893432617188,0.2193450927734375,0.19900004069010416,0.0006357828776041666,0.0171661376953125,30.525843302408855,42.3126220703125,24.98308817545573,20.125071207682293,22.167205810546875,0.24286905924479166,0.07184346516927083,0.17801920572916666,0.010172526041666666,32.67733256022135,30.321121215820312
17.0,27.526219685872395,0.0457763671875,0.22188822428385416,0.13287862141927084,0.016530354817708332,35.54979960123698,30.947367350260418,27.999242146809895,27.268727620442707,27.266820271809895,0.1430511474609375,0.0743865966796875,0.08519490559895833,0.20472208658854166,29.218673706054688,22.935231526692707
18.0,34.030914306640625,0.14940897623697916,0.522613525390625,0.3064473470052083,0.12143452962239583,28.410593668619793,29.54864501953125,37.11636861165365,38.471221923828125,35.40738423665365,0.027338663736979168,0.21044413248697916,0.11189778645833333,0.010172526041666666,19.45813496907552,26.538848876953125
19.0,38.15269470214844,0.040690104166666664,0.09918212890625,0.09918212890625,0.06421407063802083,26.510238647460938,35.649617513020836,43.67701212565104,33.24572245279948,28.408050537109375,0.3045399983723958,0.09218851725260417,0.11761983235677083,0.016530354817708332,23.11261494954427,35.135904947916664
20.0,26.932398478190105,0.033696492513020836,0.034968058268229164,0.10617574055989583,0.1392364501953125,27.933756510416668,43.19953918457031,31.366348266601562,19.567489624023438,20.296732584635418,0.07692972819010417,0.1220703125,0.07692972819010417,0.16721089680989584,28.839747111002605,37.39802042643229
21.0,25.267283121744793,0.14813741048177084,0.0152587890625,0.24922688802083334,0.3611246744791667,37.11573282877604,37.233988444010414,25.745391845703125,23.19780985514323,23.274739583333332,0.1049041748046875,0.179290771484375,0.018437703450520832,0.15576680501302084,35.87468465169271,23.775736490885418
22.0,30.170440673828125,0.09473164876302083,0.003814697265625,0.11571248372395833,0.2422332763671875,33.49939982096354,28.771718343098957,31.74273173014323,32.13946024576823,30.928293863932293,0.09409586588541667,0.4126230875651042,0.057220458984375,0.021616617838541668,24.35302734375,23.799896240234375
23.0,38.12472025553385,0.21680196126302084,0.005086263020833333,0.08138020833333333,0.052134195963541664,24.750391642252605,32.04027811686198,42.77737935384115,40.5120849609375,34.603118896484375,0.11189778645833333,0.17547607421875,0.270843505859375,0.209808349609375,20.334243774414062,30.01721700032552
24.0,32.3174794514974,0.2346038818359375,0.2307891845703125,0.0553131103515625,0.3083546956380208,26.0162353515625,37.71400451660156,39.98692830403646,24.290084838867188,21.688461303710938,0.20535786946614584,0.029246012369791668,0.043233235677083336,0.2536773681640625,25.758743286132812,37.99565633138021
25.0,23.88318379720052,0.19582112630208334,0.217437744140625,0.0152587890625,0.080108642578125,31.972885131835938,42.8613026936849,25.957743326822918,20.49700419108073,20.96239725748698,0.15894571940104166,0.087738037109375,0.006357828776041667,0.09218851725260417,33.66533915201823,31.091690063476562
26.0,27.472178141276043,0.17420450846354166,0.021616617838541668,0.06103515625,0.1735687255859375,37.00129191080729,31.002044677734375,27.045567830403645,26.695887247721355,26.90887451171875,0.020345052083333332,0.23587544759114584,0.043233235677083336,0.1010894775390625,30.961990356445312,22.850672403971355
27.0,33.8433583577474,0.025431315104166668,0.1983642578125,0.08519490559895833,0.17229715983072916,28.240203857421875,29.76544698079427,35.771687825520836,37.42027282714844,35.5676015218099,0.14177958170572916,0.16848246256510416,0.003814697265625,0.14368693033854166,19.456227620442707,26.650110880533855
28.0,38.33580017089844,0.050226847330729164,0.2981821695963542,0.0400543212890625,0.052134195963541664,23.278554280598957,34.75507100423177,43.5638427734375,33.153533935546875,29.718399047851562,0.10363260904947917,0.021616617838541668,0.09409586588541667,0.13478597005208334,21.14105224609375,34.091949462890625
29.0,26.381174723307293,0.13987223307291666,0.038782755533854164,0.054677327473958336,0.42724609375,27.886708577473957,43.38836669921875,31.91693623860677,19.727706909179688,19.988377888997395,0.08392333984375,0.2638498942057292,0.042597452799479164,0.0152587890625,28.600692749023438,38.43498229980469
30.0,24.881362915039062,0.12461344401041667,0.08837381998697917,0.0286102294921875,0.06357828776041667,34.81483459472656,38.09229532877604,26.007970174153645,22.67011006673177,22.696812947591145,0.1506805419921875,0.08265177408854167,0.06930033365885417,0.060399373372395836,34.79194641113281,24.588902791341145
31.0,29.588699340820312,0.0095367431640625,0.08646647135416667,0.041961669921875,0.3350575764973958,34.08177693684896,29.20977274576823,31.807581583658855,31.885147094726562,30.380884806315105,0.2460479736328125,0.033696492513020836,0.06548563639322917,0.035603841145833336,24.236679077148438,24.007161458333332
32.0,37.37004597981771,0.0247955322265625,0.18183390299479166,0.008900960286458334,0.141143798828125,23.598988850911457,31.305313110351562,41.1529541015625,39.67603047688802,35.22555033365885,0.13605753580729166,0.06739298502604167,0.1354217529296875,0.14432271321614584,19.929250081380207,29.18688456217448
33.0,33.62337748209635,0.034968058268229164,0.1678466796875,0.020345052083333332,0.10172526041666667,24.54376220703125,38.503011067708336,41.072845458984375,25.749842325846355,22.500991821289062,0.10236104329427083,0.24731953938802084,0.21616617838541666,0.5823771158854166,23.99889628092448,38.6803944905599
34.0,24.23540751139323,0.0031789143880208335,0.03814697265625,0.21998087565104166,0.118255615234375,30.89459737141927,42.47728983561198,26.229222615559895,20.392100016276043,20.231246948242188,0.11571248372395833,0.11126200358072917,0.008900960286458334,0.10045369466145833,32.993316650390625,31.309763590494793
35.0,25.842666625976562,0.13224283854166666,0.09282430013020833,0.087738037109375,0.13097127278645834,37.7966562906901,31.351089477539062,27.317047119140625,26.134490966796875,25.599161783854168,0.06802876790364583,0.16148885091145834,0.09600321451822917,0.2981821695963542,31.974156697591145,22.604624430338543
36.0,33.04227193196615,0.05340576171875,0.12524922688802084,0.15703837076822916,0.12270609537760417,29.941558837890625,28.078079223632812,35.006205240885414,37.158966064453125,34.65588887532552,0.11380513509114583,0.030517578125,0.1354217529296875,0.1373291015625,20.330429077148438,25.389989217122395
37.0,37.54615783691406,0.02288818359375,0.12652079264322916,0.0095367431640625,0.03814697265625,25.206883748372395,33.5845947265625,45.10052998860677,34.901936848958336,29.216766357421875,0.041961669921875,0.1621246337890625,0.034968058268229164,0.0171661376953125,21.91607157389323,33.20439656575521
38.0,27.269999186197918,0.12969970703125,0.110626220703125,0.046412150065104164,0.2619425455729167,26.854832967122395,41.48228963216146,32.96979268391927,19.486745198567707,19.74169413248698,0.07947285970052083,0.2765655517578125,0.10999043782552083,0.1239776611328125,27.655283610026043,37.63389587402344
39.0,25.332132975260418,0.010808308919270834,0.10236104329427083,0.13415018717447916,0.16721089680989584,34.6221923828125,38.066864013671875,25.533676147460938,21.967569986979168,23.183822631835938,0.11698404947916667,0.19391377766927084,0.003814697265625,0.010808308919270834,34.77923075358073,24.958292643229168
40.0,30.28424580891927,0.2663930257161458,0.217437744140625,0.2504984537760417,0.11507670084635417,33.89294942220052,29.39287821451823,28.799692789713543,30.17107645670573,30.824661254882812,0.09091695149739583,0.133514404296875,0.18628438313802084,0.09981791178385417,24.683634440104168,23.927688598632812
41.0,39.652506510416664,0.042597452799479164,0.043233235677083336,0.034968058268229164,0.2797444661458333,24.117151896158855,31.488418579101562,38.150787353515625,38.79610697428385,36.27649943033854,0.07184346516927083,0.18056233723958334,0.0972747802734375,0.033696492513020836,19.7601318359375,29.179890950520832
42.0,34.94135538736979,0.1888275146484375,0.20345052083333334,0.13669331868489584,0.044504801432291664,24.508158365885418,38.39683532714844,38.960774739583336,24.930953979492188,23.714701334635418,0.125885009765625,0.2943674723307292,0.133514404296875,0.057220458984375,24.15911356608073,38.0102793375651
43.0,24.435679117838543,0.041325887044270836,0.052769978841145836,0.026067097981770832,0.019073486328125,29.599507649739582,44.03368631998698,25.323867797851562,19.83324686686198,20.53070068359375,0.2930959065755208,0.008265177408854166,0.13669331868489584,0.17801920572916666,32.21257527669271,33.16624959309896
44.0,25.926589965820312,0.14559427897135416,0.033060709635416664,0.0286102294921875,0.054041544596354164,32.68877665201823,31.974156697591145,27.048110961914062,26.044845581054688,25.292078653971355,0.060399373372395836,0.179290771484375,0.16466776529947916,0.0438690185546875,29.616038004557293,22.147496541341145
45.0,32.465616861979164,0.016530354817708332,0.21235148111979166,0.041325887044270836,0.054041544596354164,29.77752685546875,27.967453002929688,33.56488545735677,36.275227864583336,33.98259480794271,0.20154317220052084,0.029881795247395832,0.1010894775390625,0.2721150716145833,20.030975341796875,24.776458740234375
46.0,38.44324747721354,0.14177958170572916,0.072479248046875,0.095367431640625,0.07311503092447917,26.906331380208332,33.20503234863281,44.58300272623698,35.81364949544271,30.188242594401043,0.12143452962239583,0.16911824544270834,0.11189778645833333,0.2193450927734375,23.236592610677082,32.506306966145836
47.0,27.853647867838543,0.046412150065104164,0.012715657552083334,0.025431315104166668,0.018437703450520832,27.113596598307293,40.683746337890625,33.92982482910156,19.75695292154948,19.817352294921875,0.3388722737630208,0.014623006184895834,0.2600351969401042,0.22633870442708334,27.85046895345052,37.211100260416664
48.0,23.328781127929688,0.043233235677083336,0.0553131103515625,0.07311503092447917,0.1068115234375,33.831278483072914,37.97086079915365,26.042938232421875,22.192001342773438,21.95294698079427,0.13097127278645834,0.1468658447265625,0.0705718994140625,0.11761983235677083,34.909566243489586,25.20751953125
49.0,28.37053934733073,0.13097127278645834,0.0514984130859375,0.09981791178385417,0.2683003743489583,33.946990966796875,28.257369995117188,30.55127461751302,30.476888020833332,28.911590576171875,0.17038981119791666,0.24096171061197916,0.12842814127604166,0.030517578125,25.4058837890625,23.12024434407552
50.0,35.831451416015625,0.06739298502604167,0.17484029134114584,0.15513102213541666,0.22761027018229166,26.85101826985677,30.203501383463543,39.2615000406901,40.051778157552086,34.650166829427086,0.057220458984375,0.052134195963541664,0.11316935221354167,0.047047932942708336,20.79010009765625,28.653462727864582
51.0,34.02264912923177,0.08837381998697917,0.0031789143880208335,0.012715657552083334,0.225067138671875,26.975631713867188,37.700653076171875,41.3506825764974,27.0843505859375,23.430506388346355,0.12715657552083334,0.09918212890625,0.0514984130859375,0.20917256673177084,24.972279866536457,37.648518880208336
52.0,23.482004801432293,0.07883707682291667,0.09282430013020833,0.14050801595052084,0.004450480143229167,31.897226969401043,43.039957682291664,25.976816813151043,19.290924072265625,20.440419514973957,0.2606709798177083,0.2759297688802083,0.2644856770833333,0.1888275146484375,32.8833262125651,33.24254353841146
53.0,24.82287089029948,0.25177001953125,0.1087188720703125,0.012079874674479166,0.2683003743489583,37.00574239095052,33.74799092610677,26.812235514322918,25.212605794270832,24.855295817057293,0.044504801432291664,0.061670939127604164,0.008265177408854166,0.1087188720703125,32.73455301920573,23.079554239908855
54.0,33.11030069986979,0.08710225423177083,0.15513102213541666,0.17674763997395834,0.09981791178385417,29.12139892578125,28.055191040039062,32.38360087076823,35.2013905843099,34.27314758300781,0.017801920572916668,0.3528594970703125,0.23015340169270834,0.010808308919270834,19.26104227701823,24.644851684570312
55.0,40.00282287597656,0.050226847330729164,0.08138020833333333,0.10617574055989583,0.1544952392578125,25.313695271809895,32.95135498046875,40.270487467447914,34.06397501627604,31.915664672851562,0.021616617838541668,0.035603841145833336,0.016530354817708332,0.10236104329427083,22.23523457845052,32.22529093424479
56.0,29.146830240885418,0.15894571940104166,0.1583099365234375,0.18819173177083334,0.036875406901041664,26.845932006835938,42.24522908528646,32.36961364746094,18.897374471028645,20.926157633463543,0.026067097981770832,0.22125244140625,0.1506805419921875,0.17102559407552084,26.994705200195312,38.56722513834635
57.0,23.711522420247395,0.2511342366536458,0.37384033203125,0.0025431315104166665,0.064849853515625,33.59095255533854,39.05169169108073,25.287628173828125,21.85376485188802,21.58673604329427,0.20154317220052084,0.07756551106770833,0.0133514404296875,0.07120768229166667,35.16451517740885,26.060740152994793
58.0,27.77862548828125,0.17420450846354166,0.20345052083333334,0.10808308919270833,0.1811981201171875,36.36296590169271,28.528849283854168,29.895782470703125,30.076980590820312,28.171539306640625,0.354766845703125,0.0324249267578125,0.018437703450520832,0.030517578125,27.09197998046875,23.049036661783855
59.0,36.1779530843099,0.15894571940104166,0.0133514404296875,0.020345052083333332,0.118255615234375,26.559193929036457,29.900232950846355,39.30219014485677,40.440877278645836,34.89049275716146,0.1430511474609375,0.06103515625,0.1010894775390625,0.07947285970052083,20.557403564453125,28.102874755859375
60.0,34.64190165201823,0.012079874674479166,0.171661376953125,0.006993611653645833,0.1773834228515625,26.688893636067707,36.9873046875,41.90190633138021,27.68389383951823,24.180094401041668,0.1983642578125,0.030517578125,0.13097127278645834,0.4049936930338542,24.31805928548177,36.58103942871094
61.0,24.400075276692707,0.10045369466145833,0.06548563639322917,0.013987223307291666,0.20472208658854166,28.9459228515625,42.63178507486979,27.254104614257812,19.936243693033855,20.17974853515625,0.06612141927083333,0.062306722005208336,0.5207061767578125,0.07311503092447917,31.000773111979168,33.374786376953125
62.0,24.92968241373698,0.09854634602864583,0.08328755696614583,0.2841949462890625,0.17293294270833334,36.07749938964844,32.88396199544271,27.109781901041668,25.033950805664062,24.457931518554688,0.22061665852864584,0.102996826171875,0.012079874674479166,0.1468658447265625,33.14526875813802,22.25939432779948
63.0,31.22266133626302,0.021616617838541668,0.15703837076822916,0.0438690185546875,0.171661376953125,29.93329366048177,26.885350545247395,33.292134602864586,35.27641296386719,32.73200988769531,0.3465016682942708,0.0031789143880208335,0.14368693033854166,0.08074442545572917,20.528793334960938,24.217605590820312
64.0,37.49974568684896,0.18183390299479166,0.029881795247395832,0.062306722005208336,0.1316070556640625,26.90569559733073,32.7307383219401,42.5726572672526,36.42717997233073,31.12030029296875,0.043233235677083336,0.012715657552083334,0.1049041748046875,0.033060709635416664,22.607803344726562,32.562255859375
65.0,28.719584147135418,0.12652079264322916,0.0896453857421875,0.14368693033854166,0.10935465494791667,27.695337931315105,42.18228658040365,35.060882568359375,20.203908284505207,19.832611083984375,0.087738037109375,0.095367431640625,0.06993611653645833,0.15513102213541666,27.31768290201823,39.07140096028646
66.0,22.200266520182293,0.023523966471354168,0.12270609537760417,0.3115336100260417,0.06421407063802083,31.831741333007812,39.69446818033854,27.06591288248698,22.41961161295573,20.315806070963543,0.22761027018229166,0.1125335693359375,0.014623006184895834,0.23778279622395834,34.519195556640625,26.87390645345052
67.0,26.599884033203125,0.0514984130859375,0.06866455078125,0.0006357828776041666,0.15576680501302084,33.77660115559896,28.127670288085938,29.8919677734375,29.48315938313802,27.632395426432293,0.2040863037109375,0.08710225423177083,0.19772847493489584,0.10172526041666667,26.006698608398438,22.35857645670573
68.0,35.3387196858724,0.1430511474609375,0.21425882975260416,0.046412150065104164,0.16021728515625,27.159372965494793,29.764175415039062,38.36631774902344,40.26158650716146,34.72201029459635,0.11952718098958333,0.3007253011067708,0.15322367350260416,0.046412150065104164,20.163853963216145,27.64129638671875
69.0,34.84408060709635,0.057220458984375,0.14368693033854166,0.056584676106770836,0.08265177408854167,24.454752604166668,36.3470713297526,43.230692545572914,29.523213704427082,24.812698364257812,0.029881795247395832,0.18564860026041666,0.0095367431640625,0.0762939453125,23.23150634765625,36.21737162272135
70.0,24.46301778157552,0.125885009765625,0.13287862141927084,0.019709269205729168,0.07375081380208333,29.274622599283855,42.80789693196615,27.837753295898438,19.929250081380207,20.017623901367188,0.072479248046875,0.2117156982421875,0.02288818359375,0.2498626708984375,30.999501546223957,34.200032552083336
71.0,24.79235331217448,0.044504801432291664,0.15958150227864584,0.010808308919270834,0.060399373372395836,35.13971964518229,33.519744873046875,26.430765787760418,24.820963541666668,24.482091267903645,0.23905436197916666,0.15131632486979166,0.22125244140625,0.050226847330729164,33.25462341308594,22.493998209635418
72.0,30.111312866210938,0.041325887044270836,0.2504984537760417,0.064849853515625,0.050862630208333336,31.22393290201823,28.29424540201823,33.01048278808594,34.60693359375,32.52474466959635,0.044504801432291664,0.023523966471354168,0.020345052083333332,0.179290771484375,20.917892456054688,24.237950642903645
73.0,37.50737508138021,0.049591064453125,0.293731689453125,0.0152587890625,0.027974446614583332,25.728861490885418,32.42810567220052,42.668660481770836,37.676493326822914,31.391143798828125,0.1354217529296875,0.091552734375,0.0095367431640625,0.12842814127604166,22.003809611002605,31.742095947265625
74.0,29.56708272298177,0.13605753580729166,0.026702880859375,0.08138020833333333,0.09854634602864583,28.078715006510418,41.04042053222656,35.511016845703125,20.06975809733073,20.03924051920573,0.2772013346354167,0.2581278483072917,0.064849853515625,0.0095367431640625,26.956558227539062,38.53034973144531
75.0,23.352940877278645,0.2752939860026042,0.1277923583984375,0.062306722005208336,0.06866455078125,33.91583760579427,40.476481119791664,25.1312255859375,21.094640096028645,20.961761474609375,0.030517578125,0.15131632486979166,0.019709269205729168,0.062306722005208336,35.87977091471354,27.831395467122395
76.0,26.581446329752605,0.0324249267578125,0.286102294921875,0.24922688802083334,0.3178914388020833,34.777323404947914,28.807322184244793,28.78252665201823,28.322219848632812,27.552286783854168,0.15958150227864584,0.09409586588541667,0.0209808349609375,0.039418538411458336,27.115503946940105,22.806167602539062
77.0,35.10348002115885,0.07692972819010417,0.07756551106770833,0.1049041748046875,0.30517578125,26.491165161132812,29.734293619791668,36.8194580078125,39.56031799316406,34.88985697428385,0.24286905924479166,0.156402587890625,0.05340576171875,0.2422332763671875,19.87457275390625,27.94329325358073
78.0,37.31727600097656,0.09981791178385417,0.22061665852864584,0.057856241861979164,0.07120768229166667,24.468104044596355,36.0711415608724,40.83697001139323,28.095245361328125,26.343663533528645,0.031789143880208336,0.16085306803385416,0.14813741048177084,0.14495849609375,23.232777913411457,36.29175821940104
79.0,27.262369791666668,0.13860066731770834,0.08455912272135417,0.06993611653645833,0.09981791178385417,29.881795247395832,42.38255818684896,25.652567545572918,17.745335896809895,21.608352661132812,0.048955281575520836,0.1201629638671875,0.0667572021484375,0.15322367350260416,30.625661214192707,34.44608052571615
80.0,26.341756184895832,0.041325887044270836,0.17484029134114584,0.08646647135416667,0.2841949462890625,38.808186848958336,33.85162353515625,24.248123168945312,22.805531819661457,25.214513142903645,0.006993611653645833,0.052769978841145836,0.16657511393229166,0.3363291422526042,35.5370839436849,22.2015380859375
81.0,30.809402465820312,0.057856241861979164,0.12652079264322916,0.14940897623697916,0.12143452962239583,32.526652018229164,28.351465861002605,32.29331970214844,33.847808837890625,32.53491719563802,0.2613067626953125,0.16657511393229166,0.08519490559895833,0.027974446614583332,21.872202555338543,24.005889892578125
82.0,37.494659423828125,0.2721150716145833,0.018437703450520832,0.12652079264322916,0.17102559407552084,23.939132690429688,31.13110860188802,42.91979471842448,38.64860534667969,31.732559204101562,0.052134195963541664,0.021616617838541668,0.10935465494791667,0.2835591634114583,21.03424072265625,30.718485514322918
83.0,29.054641723632812,0.06993611653645833,0.060399373372395836,0.059763590494791664,0.2504984537760417,29.22503153483073,39.94623819986979,37.07186381022135,21.600723266601562,19.69146728515625,0.06548563639322917,0.08328755696614583,0.08900960286458333,0.10172526041666667,27.650833129882812,38.64224751790365
84.0,23.342132568359375,0.07120768229166667,0.1678466796875,0.15513102213541666,0.08710225423177083,34.093221028645836,40.72252909342448,26.04993184407552,21.59881591796875,20.577748616536457,0.09918212890625,0.08519490559895833,0.08074442545572917,0.2924601236979167,35.58031717936198,27.891159057617188
85.0,26.17327372233073,0.054041544596354164,0.023523966471354168,0.12270609537760417,0.038782755533854164,35.05388895670573,29.083887736002605,29.671986897786457,29.074986775716145,27.11041768391927,0.3236134847005208,0.16085306803385416,0.039418538411458336,0.08392333984375,27.807871500651043,22.360483805338543
86.0,34.6527099609375,0.11444091796875,0.09600321451822917,0.0762939453125,0.11571248372395833,24.96019999186198,29.155731201171875,37.22572326660156,39.55713907877604,34.5916748046875,0.14750162760416666,0.08392333984375,0.21807352701822916,0.21107991536458334,18.358230590820312,27.013778686523438
87.0,36.10865275065104,0.20090738932291666,0.034332275390625,0.1544952392578125,0.110626220703125,23.352305094401043,35.39466857910156,42.414347330729164,30.158360799153645,26.041030883789062,0.14813741048177084,0.07502237955729167,0.034968058268229164,0.06548563639322917,22.553126017252605,35.86387634277344
88.0,24.163564046223957,0.027338663736979168,0.095367431640625,0.07311503092447917,0.054677327473958336,29.877980550130207,43.47991943359375,29.4342041015625,19.601821899414062,19.597371419270832,0.1239776611328125,0.2079010009765625,0.22061665852864584,0.005086263020833333,30.40758768717448,35.504659016927086
89.0,24.369557698567707,0.0362396240234375,0.2040863037109375,0.20535786946614584,0.10617574055989583,34.74871317545573,35.18994649251302,25.682449340820312,23.618062337239582,23.943583170572918,0.031153361002604168,0.21425882975260416,0.057856241861979164,0.09028116861979167,33.56488545735677,22.783279418945312
90.0,30.820210774739582,0.019073486328125,0.0514984130859375,0.1659393310546875,0.1468658447265625,33.0969492594401,28.517405192057293,30.825297037760418,32.42810567220052,32.15471903483073,0.06739298502604167,0.324249267578125,0.0324249267578125,0.011444091796875,22.302627563476562,23.980458577473957
91.0,37.25878397623698,0.057220458984375,0.008265177408854166,0.17102559407552084,0.2600351969401042,23.703257242838543,31.554539998372395,41.75440470377604,38.248697916666664,32.32701619466146,0.14495849609375,0.2460479736328125,0.058492024739583336,0.11761983235677083,20.151138305664062,30.280431111653645
92.0,30.03374735514323,0.16085306803385416,0.24922688802083334,0.12143452962239583,0.16721089680989584,26.438395182291668,39.36131795247396,37.55887349446615,22.127787272135418,20.25159200032552,0.0896453857421875,0.186920166015625,0.0972747802734375,0.171661376953125,25.93676249186198,38.47376505533854
93.0,22.56457010904948,0.08455912272135417,0.033060709635416664,0.006993611653645833,0.07565816243489583,33.50257873535156,41.00481669108073,25.770187377929688,20.99291483561198,20.174662272135418,0.06739298502604167,0.095367431640625,0.21044413248697916,0.041961669921875,35.02082824707031,28.464635213216145
94.0,27.42322285970052,0.286102294921875,0.1964569091796875,0.011444091796875,0.19009908040364584,35.27196248372396,28.817494710286457,27.784983317057293,27.623494466145832,27.356465657552082,0.062306722005208336,0.08138020833333333,0.06802876790364583,0.043233235677083336,28.31713358561198,22.673288981119793
95.0,34.96551513671875,0.048955281575520836,0.2644856770833333,0.12969970703125,0.020345052083333332,26.922225952148438,30.470530192057293,35.63880920410156,38.0853017171224,35.71256001790365,0.060399373372395836,0.08900960286458333,0.046412150065104164,0.003814697265625,19.368489583333332,27.095794677734375
96.0,35.677591959635414,0.09600321451822917,0.15131632486979166,0.18628438313802084,0.020345052083333332,22.203445434570312,33.98958841959635,42.94776916503906,31.499862670898438,26.50769551595052,0.0019073486328125,0.09218851725260417,0.20535786946614584,0.08392333984375,21.162668863932293,35.0030263264974
97.0,26.66028340657552,0.25177001953125,0.0025431315104166665,0.0400543212890625,0.16339619954427084,26.988983154296875,42.39590962727865,28.627395629882812,18.268585205078125,20.575205485026043,0.408172607421875,0.16466776529947916,0.091552734375,0.054041544596354164,28.30187479654948,35.94144185384115
98.0,23.863474527994793,0.015894571940104168,0.3102620442708333,0.24477640787760416,0.0782012939453125,34.24390157063802,35.182952880859375,26.425679524739582,23.885091145833332,22.50226338704427,0.08455912272135417,0.09981791178385417,0.10172526041666667,0.12270609537760417,33.490498860677086,22.708892822265625
99.0,30.701955159505207,0.2307891845703125,0.061670939127604164,0.036875406901041664,0.4291534423828125,31.930923461914062,28.044382731119793,30.563990275065105,31.969070434570312,31.88323974609375,0.3687540690104167,0.24350484212239584,0.0171661376953125,0.13415018717447916,21.941502888997395,23.501078287760418
100.0,37.63389587402344,0.293731689453125,0.133514404296875,0.1220703125,0.2587636311848958,22.95684814453125,31.513214111328125,41.81861877441406,38.58502705891927,33.60621134440104,0.18310546875,0.17229715983072916,0.1506805419921875,0.20599365234375,19.785563151041668,30.04900614420573
101.0,29.905319213867188,0.14432271321614584,0.16657511393229166,0.029881795247395832,0.043233235677083336,24.382909138997395,39.3530527750651,38.41718037923177,22.755940755208332,20.188649495442707,0.11380513509114583,0.11316935221354167,0.09791056315104167,0.1354217529296875,24.875640869140625,38.25823465983073
102.0,22.9339599609375,0.14432271321614584,0.058492024739583336,0.0591278076171875,0.2307891845703125,32.44590759277344,41.74232482910156,25.966644287109375,20.87084452311198,19.954681396484375,0.1201629638671875,0.09282430013020833,0.0152587890625,0.0820159912109375,33.94254048665365,29.173533121744793
103.0,27.181625366210938,0.041961669921875,0.054677327473958336,0.4037221272786458,0.072479248046875,34.13518269856771,29.617945353190105,26.458104451497395,26.39325459798177,26.877721150716145,0.0006357828776041666,0.12079874674479167,0.019073486328125,0.09663899739583333,28.123855590820312,22.369384765625
104.0,33.84717305501302,0.217437744140625,0.07565816243489583,0.12334187825520833,0.2568562825520833,28.741200764973957,28.975804646809895,37.2015635172526,38.44134012858073,35.329182942708336,0.217437744140625,0.10363260904947917,0.0171661376953125,0.1811981201171875,20.124435424804688,26.460011800130207
105.0,37.72544860839844,0.15322367350260416,0.14368693033854166,0.09854634602864583,0.125885009765625,24.185816446940105,33.22601318359375,42.08819071451823,31.32184346516927,28.069178263346355,0.18374125162760416,0.12143452962239583,0.07184346516927083,0.1163482666015625,22.19835917154948,34.1803232828776
106.0,25.41351318359375,0.07120768229166667,0.030517578125,0.21044413248697916,0.21680196126302084,29.656728108723957,42.73160298665365,29.951095581054688,18.56676737467448,19.658406575520832,0.0247955322265625,0.0591278076171875,0.060399373372395836,0.06866455078125,29.982884724934895,36.31909688313802
107.0,23.529688517252605,0.13987223307291666,0.07756551106770833,0.027338663736979168,0.3045399983723958,35.26115417480469,36.5899403889974,26.75183614095052,23.70134989420573,22.748311360677082,0.12969970703125,0.14050801595052084,0.037511189778645836,0.008265177408854166,34.88286336263021,23.197174072265625
108.0,30.323028564453125,0.10617574055989583,0.2530415852864583,0.17293294270833334,0.0133514404296875,32.986958821614586,27.497609456380207,30.27788798014323,31.678517659505207,31.341552734375,0.041961669921875,0.031789143880208336,0.014623006184895834,0.06993611653645833,23.012161254882812,23.054122924804688
109.0,37.52962748209635,0.16657511393229166,0.13796488444010416,0.18437703450520834,0.033696492513020836,23.245493570963543,30.76934814453125,40.69836934407552,38.2531483968099,33.95398457845052,0.048319498697916664,0.087738037109375,0.0400543212890625,0.16339619954427084,19.8822021484375,29.288609822591145
110.0,31.54436747233073,0.036875406901041664,0.1239776611328125,0.050226847330729164,0.087738037109375,27.446746826171875,38.7121836344401,38.75287373860677,23.68609110514323,20.833333333333332,0.019709269205729168,0.21298726399739584,0.12842814127604166,0.3070831298828125,25.993982950846355,38.72044881184896
111.0,23.54113260904948,0.11507670084635417,0.2740224202473958,0.17293294270833334,0.156402587890625,33.08868408203125,41.62025451660156,25.885899861653645,20.920435587565105,20.334243774414062,0.12270609537760417,0.14432271321614584,0.12461344401041667,0.13605753580729166,34.236907958984375,29.68152364095052
112.0,25.676727294921875,0.2155303955078125,0.07883707682291667,0.14623006184895834,0.07120768229166667,37.23335266113281,29.927571614583332,27.75255839029948,27.093251546223957,26.140848795572918,0.046412150065104164,0.033060709635416664,0.3337860107421875,0.020345052083333332,30.68860371907552,22.305806477864582
113.0,33.32710266113281,0.012715657552083334,0.0438690185546875,0.07692972819010417,0.17102559407552084,26.98071797688802,28.293609619140625,35.72527567545573,37.37195332845052,35.47477722167969,0.21807352701822916,0.087738037109375,0.048319498697916664,0.3172556559244792,18.54387919108073,25.577545166015625
114.0,37.89710998535156,0.2810160319010417,0.13097127278645834,0.043233235677083336,0.08646647135416667,24.3988037109375,35.4468027750651,42.75321960449219,32.717386881510414,28.066635131835938,0.039418538411458336,0.0209808349609375,0.09791056315104167,0.21489461263020834,22.263209025065105,34.955342610677086
115.0,25.69580078125,0.048319498697916664,0.12969970703125,0.034332275390625,0.2524058024088542,25.857925415039062,42.60953267415365,31.48969014485677,19.155502319335938,19.557952880859375,0.042597452799479164,0.2752939860026042,0.08265177408854167,0.012079874674479166,27.349472045898438,37.07695007324219
116.0,23.322423299153645,0.023523966471354168,0.011444091796875,0.025431315104166668,0.06930033365885417,32.65953063964844,35.792032877604164,25.951385498046875,22.886276245117188,22.322972615559895,0.2727508544921875,0.054041544596354164,0.042597452799479164,0.1354217529296875,33.08677673339844,23.018519083658855
117.0,29.47998046875,0.07756551106770833,0.35858154296875,0.012715657552083334,0.12906392415364584,31.644185384114582,27.695337931315105,30.890782674153645,31.586964925130207,30.939737955729168,0.008265177408854166,0.08074442545572917,0.031153361002604168,0.3426869710286458,22.365570068359375,22.787729899088543
118.0,37.259419759114586,0.13669331868489584,0.041325887044270836,0.171661376953125,0.3935496012369792,26.079813639322918,30.933380126953125,40.63860575358073,39.14070129394531,34.334818522135414,0.047047932942708336,0.029881795247395832,0.056584676106770836,0.14623006184895834,21.402359008789062,29.236475626627605
119.0,31.52783711751302,0.240325927734375,0.2536773681640625,0.0629425048828125,0.22379557291666666,25.449117024739582,38.5290781656901,38.8952891031901,24.035135904947918,21.544138590494793,0.11761983235677083,0.0133514404296875,0.0025431315104166665,0.1373291015625,25.072733561197918,38.523356119791664
120.0,23.660024007161457,0.3833770751953125,0.171661376953125,0.22125244140625,0.003814697265625,29.144287109375,42.185465494791664,24.831771850585938,19.854227701822918,20.605087280273438,0.10935465494791667,0.061670939127604164,0.033696492513020836,0.00762939453125,32.30921427408854,30.736287434895832
121.0,25.484085083007812,0.446319580078125,0.09218851725260417,0.0896453857421875,0.044504801432291664,36.42145792643229,30.57098388671875,27.390797932942707,26.51659647623698,25.57373046875,0.22570292154947916,0.110626220703125,0.0858306884765625,0.3286997477213542,30.867258707682293,22.046407063802082
122.0,33.15925598144531,0.2543131510416667,0.0438690185546875,0.06548563639322917,0.2892812093098958,27.496973673502605,28.929392496744793,35.19503275553385,37.548065185546875,34.8199208577474,0.031789143880208336,0.2587636311848958,0.17547607421875,0.164031982421875,18.90118916829427,25.924046834309895
123.0,38.81009419759115,0.11507670084635417,0.14940897623697916,0.255584716796875,0.09854634602864583,25.149027506510418,33.88086954752604,42.01634724934896,32.36071268717448,29.310226440429688,0.047047932942708336,0.19137064615885416,0.09028116861979167,0.004450480143229167,21.893819173177082,33.82682800292969
124.0,26.182174682617188,0.14940897623697916,0.08519490559895833,0.062306722005208336,0.16276041666666666,28.949737548828125,42.2051747639974,31.986236572265625,19.173304239908855,19.576390584309895,0.3477732340494792,0.141143798828125,0.031789143880208336,0.15004475911458334,29.432932535807293,37.043253580729164
125.0,23.29572041829427,0.24477640787760416,0.0400543212890625,0.048319498697916664,0.09918212890625,32.69068400065104,36.67132059733073,25.663375854492188,22.439956665039062,21.984100341796875,0.09028116861979167,0.10236104329427083,0.07947285970052083,0.031789143880208336,33.94190470377604,23.835500081380207
126.0,29.24664815266927,0.20090738932291666,0.10935465494791667,0.0438690185546875,0.11126200358072917,32.18714396158854,28.169631958007812,28.909047444661457,30.109405517578125,29.966990152994793,0.019709269205729168,0.13097127278645834,0.2880096435546875,0.247955322265625,22.969563802083332,22.81634012858073
127.0,37.10492451985677,0.16911824544270834,0.022252400716145832,0.031789143880208336,0.2346038818359375,24.199167887369793,30.583699544270832,39.87248738606771,39.06440734863281,34.520467122395836,0.0972747802734375,0.1983642578125,0.18183390299479166,0.013987223307291666,19.498189290364582,28.999964396158855
128.0,32.3492685953776,0.021616617838541668,0.035603841145833336,0.1239776611328125,0.026067097981770832,27.165730794270832,38.41527303059896,39.63152567545573,24.81842041015625,21.92370096842448,0.1544952392578125,0.0031789143880208335,0.43487548828125,0.2606709798177083,25.49425760904948,38.15905253092448
129.0,23.203531901041668,0.17992655436197916,0.06421407063802083,0.035603841145833336,0.057220458984375,31.11712137858073,41.997273763020836,25.683085123697918,20.027796427408855,20.139058430989582,0.24922688802083334,0.2867380777994792,0.031153361002604168,0.2530415852864583,33.260345458984375,31.312306722005207
130.0,24.819056193033855,0.10744730631510417,0.10617574055989583,0.2778371175130208,0.2498626708984375,34.88349914550781,31.04718526204427,27.772903442382812,26.447296142578125,24.85974629720052,0.13605753580729166,0.057220458984375,0.125885009765625,0.1621246337890625,30.052820841471355,22.008260091145832
131.0,31.33837381998698,0.2193450927734375,0.12715657552083334,0.18946329752604166,0.0362396240234375,28.655370076497395,28.243382771809895,34.7137451171875,37.2168223063151,33.3855946858724,0.08455912272135417,0.056584676106770836,0.11952718098958333,0.125885009765625,19.461313883463543,24.89471435546875
132.0,38.77957661946615,0.118255615234375,0.07120768229166667,0.1049041748046875,0.006357828776041667,23.808797200520832,32.567342122395836,41.91144307454427,33.320109049479164,30.02166748046875,0.018437703450520832,0.087738037109375,0.15767415364583334,0.00762939453125,21.629969278971355,32.77715047200521
133.0,26.009241739908855,0.0209808349609375,0.14559427897135416,0.012079874674479166,0.036875406901041664,28.54474385579427,41.613260904947914,33.00603230794271,19.686381022135418,19.212086995442707,0.010172526041666666,0.011444091796875,0.0031789143880208335,0.194549560546875,28.933207194010418,37.58811950683594
134.0,23.282368977864582,0.08837381998697917,0.12842814127604166,0.2644856770833333,0.0743865966796875,35.870869954427086,37.34715779622396,25.168100992838543,22.188186645507812,21.454493204752605,0.10172526041666667,0.034332275390625,0.0438690185546875,0.037511189778645836,35.51673889160156,24.285634358723957
135.0,27.79070536295573,0.10172526041666667,0.21298726399739584,0.14050801595052084,0.12969970703125,35.275777180989586,28.8543701171875,30.43365478515625,31.17688496907552,28.816858927408855,0.3509521484375,0.21044413248697916,0.118255615234375,0.0286102294921875,25.355021158854168,23.35357666015625
136.0,35.60447692871094,0.23714701334635416,0.023523966471354168,0.06357828776041667,0.035603841145833336,25.595982869466145,31.021753946940105,40.20881652832031,39.89410400390625,34.090677897135414,0.125885009765625,0.018437703450520832,0.22188822428385416,0.0025431315104166665,20.557403564453125,28.681437174479168
137.0,32.46625264485677,0.13860066731770834,0.0782012939453125,0.015894571940104168,0.4049936930338542,24.083455403645832,37.508646647135414,41.4117177327474,25.87445576985677,22.03687032063802,0.07692972819010417,0.0553131103515625,0.15322367350260416,0.2733866373697917,23.7274169921875,37.89710998535156
138.0,25.107701619466145,0.09600321451822917,0.0324249267578125,0.14368693033854166,0.0031789143880208335,28.27898661295573,42.01698303222656,24.18835957845052,18.715540568033855,20.751317342122395,0.047047932942708336,0.0896453857421875,0.23905436197916666,0.064849853515625,31.01348876953125,31.510670979817707
139.0,25.392532348632812,0.133514404296875,0.07565816243489583,0.037511189778645836,0.19137064615885416,35.3546142578125,31.297047932942707,25.583267211914062,25.13440450032552,25.0091552734375,0.08710225423177083,0.004450480143229167,0.048955281575520836,0.1735687255859375,30.495325724283855,21.890640258789062
140.0,31.742095947265625,0.013987223307291666,0.34332275390625,0.08710225423177083,0.0209808349609375,28.268814086914062,28.558731079101562,33.77723693847656,36.0260009765625,33.8293711344401,0.024159749348958332,0.1373291015625,0.047047932942708336,0.24286905924479166,19.035975138346355,25.122960408528645
141.0,36.97776794433594,0.24350484212239584,0.13796488444010416,0.041961669921875,0.0012715657552083333,24.764378865559895,32.839457194010414,43.14295450846354,34.694671630859375,29.39160664876302,0.019709269205729168,0.12079874674479167,0.1068115234375,0.06421407063802083,21.584192911783855,32.437642415364586
142.0,27.11804707845052,0.09791056315104167,0.3382364908854167,0.027974446614583332,0.09663899739583333,25.88335673014323,41.77729288736979,32.96470642089844,19.430796305338543,19.627888997395832,0.08265177408854167,0.347137451171875,0.0400543212890625,0.1316070556640625,27.361551920572918,37.57158915201823
143.0,22.68218994140625,0.013987223307291666,0.0858306884765625,0.10935465494791667,0.23333231608072916,31.969706217447918,37.76359558105469,25.164286295572918,21.25231424967448,21.60326639811198,0.3344217936197917,0.4590352376302083,0.3484090169270833,0.2848307291666667,33.51720174153646,24.895985921223957
144.0,26.869455973307293,0.0171661376953125,0.029246012369791668,0.006993611653645833,0.12143452962239583,34.53890482584635,28.551737467447918,29.886881510416668,29.86907958984375,28.777440388997395,0.240325927734375,0.11571248372395833,0.06548563639322917,0.07502237955729167,24.87627665201823,22.954940795898438
145.0,36.08004252115885,0.2524058024088542,0.12524922688802084,0.058492024739583336,0.1087188720703125,25.932947794596355,30.007044474283855,38.92707824707031,39.42680358886719,34.36915079752604,0.1506805419921875,0.012079874674479166,0.025431315104166668,0.2606709798177083,20.40545145670573,28.519948323567707
146.0,33.86243184407552,0.12524922688802084,0.14750162760416666,0.18564860026041666,0.12969970703125,25.084813435872395,37.455240885416664,41.91017150878906,26.627858479817707,23.286819458007812,0.064849853515625,0.011444091796875,0.194549560546875,0.029246012369791668,23.891448974609375,37.46668497721354
147.0,22.989273071289062,0.010808308919270834,0.13605753580729166,0.14623006184895834,0.029881795247395832,32.175699869791664,42.00617472330729,26.411056518554688,19.606908162434895,19.568761189778645,0.052769978841145836,0.23523966471354166,0.08265177408854167,0.11126200358072917,33.580780029296875,32.124837239583336
148.0,24.86419677734375,0.14177958170572916,0.1068115234375,0.19391377766927084,0.4437764485677083,36.19511922200521,31.690597534179688,26.587804158528645,24.69317118326823,24.32696024576823,0.027338663736979168,0.13033548990885416,0.08837381998697917,0.09218851725260417,31.826019287109375,22.04449971516927
149.0,30.577341715494793,0.027338663736979168,0.133514404296875,0.026702880859375,0.0762939453125,29.500961303710938,28.380711873372395,33.97178649902344,36.20084126790365,33.06452433268229,0.13669331868489584,0.10172526041666667,0.044504801432291664,0.03814697265625,19.699732462565105,24.695078531901043
150.0,38.38666280110677,0.12906392415364584,0.1125335693359375,0.19200642903645834,0.035603841145833336,25.437037150065105,32.55271911621094,42.200724283854164,34.94707743326823,30.229568481445312,0.012079874674479166,0.0286102294921875,0.21298726399739584,0.11761983235677083,21.897633870442707,32.44654337565104
151.0,27.933756510416668,0.19073486328125,0.16530354817708334,0.029881795247395832,0.08328755696614583,26.218414306640625,40.73905944824219,32.91956583658854,19.361495971679688,19.737879435221355,0.0762939453125,0.0019073486328125,0.0896453857421875,0.011444091796875,26.818593343098957,37.851969401041664
152.0,25.12359619140625,0.026702880859375,0.14940897623697916,0.045140584309895836,0.12334187825520833,33.10457865397135,38.48139444986979,24.801890055338543,21.465301513671875,22.294998168945312,0.22633870442708334,0.1068115234375,0.09981791178385417,0.17229715983072916,34.67623392740885,25.911331176757812
153.0,27.609507242838543,0.171661376953125,0.0858306884765625,0.16911824544270834,0.14050801595052084,35.9948476155599,27.478535970052082,29.37634785970052,29.645919799804688,28.238296508789062,0.09473164876302083,0.0476837158203125,0.19709269205729166,0.1544952392578125,26.172637939453125,22.39545186360677
154.0,37.24479675292969,0.19582112630208334,0.10045369466145833,0.23778279622395834,0.3337860107421875,24.31805928548177,29.57471211751302,37.525177001953125,39.324442545572914,35.24462381998698,0.0006357828776041666,0.19327799479166666,0.14368693033854166,0.12715657552083334,18.88275146484375,27.664820353190105
155.0,33.66661071777344,0.11444091796875,0.194549560546875,0.050226847330729164,0.0667572021484375,26.317596435546875,36.09148661295573,41.29791259765625,27.076085408528645,23.434956868489582,0.08710225423177083,0.07756551106770833,0.18628438313802084,0.050862630208333336,24.187723795572918,36.43480936686198
156.0,23.775736490885418,0.20090738932291666,0.046412150065104164,0.2155303955078125,0.02288818359375,29.569625854492188,42.5408681233724,27.51477559407552,20.34759521484375,20.280202229817707,0.0934600830078125,0.34332275390625,0.15131632486979166,0.09918212890625,31.609217325846355,32.95326232910156
157.0,24.89026387532552,0.2040863037109375,0.23587544759114584,0.316619873046875,0.2810160319010417,36.07749938964844,31.597137451171875,26.48162841796875,24.943033854166668,24.725596110026043,0.0209808349609375,0.13796488444010416,0.0006357828776041666,0.20281473795572916,32.292683919270836,21.578470865885418
158.0,31.05481465657552,0.15385945638020834,0.072479248046875,0.1049041748046875,0.14432271321614584,29.462178548177082,27.715047200520832,33.12873840332031,35.16832987467448,32.78795878092448,0.016530354817708332,0.064849853515625,0.09282430013020833,0.17484029134114584,19.918441772460938,23.990631103515625
159.0,39.56413269042969,0.2752939860026042,0.0031789143880208335,0.12842814127604166,0.047047932942708336,23.599624633789062,32.63409932454427,41.577657063802086,35.33808390299479,31.726837158203125,0.19391377766927084,0.19582112630208334,0.031153361002604168,0.19137064615885416,20.511627197265625,31.691233317057293
160.0,29.178619384765625,0.037511189778645836,0.050862630208333336,0.08837381998697917,0.217437744140625,28.14801534016927,41.110992431640625,32.786051432291664,18.825531005859375,20.682652791341145,0.24922688802083334,0.080108642578125,0.03814697265625,0.025431315104166668,28.226852416992188,37.694295247395836
161.0,24.080276489257812,0.12969970703125,0.4564921061197917,0.1354217529296875,0.3344217936197917,33.73146057128906,39.148966471354164,24.354934692382812,20.895640055338543,21.54858907063802,0.0820159912109375,0.044504801432291664,0.0171661376953125,0.025431315104166668,35.25416056315104,26.4739990234375
162.0,27.146657307942707,0.0896453857421875,0.08392333984375,0.044504801432291664,0.1354217529296875,36.35978698730469,30.420939127604168,30.670801798502605,30.150731404622395,28.024673461914062,0.3732045491536458,0.3236134847005208,0.0362396240234375,0.12143452962239583,26.894251505533855,23.860931396484375
163.0,35.70365905761719,0.20726521809895834,0.14050801595052084,0.1926422119140625,0.12969970703125,22.943496704101562,28.85119120279948,38.78339131673177,40.433247884114586,34.601847330729164,0.0667572021484375,0.06993611653645833,0.10426839192708333,0.10999043782552083,18.37603251139323,27.023951212565105
164.0,34.26424662272135,0.08837381998697917,0.0133514404296875,0.030517578125,0.1850128173828125,25.604248046875,35.207112630208336,41.79573059082031,27.520497639973957,23.839314778645832,0.11507670084635417,0.2117156982421875,0.0006357828776041666,0.3026326497395833,23.853302001953125,36.04316711425781
165.0,23.714065551757812,0.11316935221354167,0.14432271321614584,0.3801981608072917,0.10172526041666667,30.503590901692707,41.91271464029948,27.45374043782552,19.629160563151043,19.9127197265625,0.22570292154947916,0.10172526041666667,0.11126200358072917,0.12079874674479167,31.881968180338543,33.08423360188802
166.0,24.99834696451823,0.006357828776041667,0.08900960286458333,0.29754638671875,0.30517578125,37.30901082356771,31.981786092122395,26.226043701171875,24.543126424153645,23.926417032877605,0.034968058268229164,0.017801920572916668,0.042597452799479164,0.110626220703125,33.62401326497396,21.656036376953125
167.0,30.401229858398438,0.10553995768229167,0.0324249267578125,0.141143798828125,0.07120768229166667,30.207316080729168,27.87335713704427,32.79940287272135,35.0341796875,32.712300618489586,0.18628438313802084,0.278472900390625,0.006993611653645833,0.0476837158203125,20.460764567057293,24.124781290690105
168.0,36.42845153808594,0.06421407063802083,0.026067097981770832,0.07565816243489583,0.09028116861979167,23.193359375,32.135009765625,43.78509521484375,37.745157877604164,31.038920084635418,0.15385945638020834,0.031789143880208336,0.16021728515625,0.09854634602864583,20.341873168945312,31.363169352213543
169.0,28.931935628255207,0.040690104166666664,0.133514404296875,0.008265177408854166,0.2269744873046875,26.486714680989582,40.14905293782552,34.76842244466146,20.57647705078125,19.838333129882812,0.118255615234375,0.12652079264322916,0.09028116861979167,0.0006357828776041666,26.139577229817707,37.70637512207031
170.0,22.94476826985677,0.14940897623697916,0.156402587890625,0.1239776611328125,0.0031789143880208335,34.7894032796224,39.55841064453125,25.808970133463543,21.80798848470052,20.615895589192707,0.07375081380208333,0.22951761881510416,0.08710225423177083,0.017801920572916668,35.81809997558594,26.708602905273438
171.0,25.968551635742188,0.027974446614583332,0.335693359375,0.08328755696614583,0.015894571940104168,34.144083658854164,29.224395751953125,30.71149190266927,29.997507731119793,26.78235371907552,0.031789143880208336,0.0934600830078125,0.0514984130859375,0.010172526041666666,25.92150370279948,23.054122924804688
172.0,34.92546081542969,0.10363260904947917,0.033696492513020836,0.062306722005208336,0.043233235677083336,23.250579833984375,28.205235799153645,39.00718688964844,40.47075907389323,34.43336486816406,0.5601247151692709,0.0934600830078125,0.03814697265625,0.14623006184895834,18.296559651692707,26.442845662434895
173.0,35.71637471516927,0.194549560546875,0.10363260904947917,0.14432271321614584,0.14432271321614584,25.504430135091145,34.53254699707031,40.636698404947914,27.059555053710938,24.74530537923177,0.21044413248697916,0.2676645914713542,0.07502237955729167,0.3426869710286458,23.759841918945312,35.33744812011719
174.0,24.518966674804688,0.125885009765625,0.1277923583984375,0.08646647135416667,0.16148885091145834,31.218846638997395,42.2827402750651,26.28644307454427,18.72571309407552,20.058314005533855,0.3884633382161458,0.17293294270833334,0.10172526041666667,0.07883707682291667,32.12165832519531,33.3410898844401
175.0,24.534861246744793,0.0934600830078125,0.087738037109375,0.1659393310546875,0.15131632486979166,37.531534830729164,32.92147318522135,25.88208516438802,24.318695068359375,23.67846171061198,0.23333231608072916,0.2536773681640625,0.110626220703125,0.20917256673177084,34.41301981608073,21.96820576985677
176.0,29.71331278483073,0.017801920572916668,0.06548563639322917,0.033696492513020836,0.12143452962239583,30.466715494791668,28.11876932779948,32.154083251953125,34.29285685221354,32.20558166503906,0.048955281575520836,0.08328755696614583,0.19391377766927084,0.22061665852864584,20.327250162760418,24.022420247395832
177.0,37.892659505208336,0.0457763671875,0.03814697265625,0.14432271321614584,0.06866455078125,23.278554280598957,32.459259033203125,42.86321004231771,37.501017252604164,31.686147054036457,0.017801920572916668,0.11444091796875,0.0006357828776041666,0.2117156982421875,20.462671915690105,31.613667805989582
178.0,28.525034586588543,0.186920166015625,0.15576680501302084,0.09663899739583333,0.1354217529296875,25.41351318359375,40.35313924153646,34.90638732910156,20.03033955891927,19.324620564778645,0.19200642903645834,0.11507670084635417,0.061670939127604164,0.3223419189453125,25.643030802408855,38.10882568359375
179.0,23.041407267252605,0.09473164876302083,0.11380513509114583,0.02288818359375,0.00762939453125,31.897862752278645,40.008544921875,25.62713623046875,21.334330240885418,20.89373270670573,0.3445943196614583,0.1220703125,0.22443135579427084,0.027974446614583332,34.64635213216146,27.161916097005207
180.0,26.114781697591145,0.1068115234375,0.10744730631510417,0.08710225423177083,0.0012715657552083333,35.58158874511719,28.720855712890625,29.25427754720052,28.624216715494793,26.9622802734375,0.09409586588541667,0.08900960286458333,0.1506805419921875,0.034332275390625,27.26427714029948,22.698084513346355
181.0,34.79321797688802,0.3070831298828125,0.047047932942708336,0.1468658447265625,0.16148885091145834,24.50243631998698,28.982162475585938,38.01600138346354,40.194193522135414,34.58468119303385,0.17547607421875,0.2791086832682292,0.18437703450520834,0.148773193359375,18.559773763020832,26.432037353515625
182.0,35.68712870279948,0.041961669921875,0.17992655436197916,0.17038981119791666,0.18755594889322916,23.241043090820312,34.52618916829427,42.65594482421875,29.27080790201823,25.58581034342448,0.039418538411458336,0.11380513509114583,0.3032684326171875,0.12969970703125,22.12842305501302,35.59303283691406
183.0,25.159835815429688,0.15322367350260416,0.3846486409505208,0.0031789143880208335,0.19009908040364584,28.303146362304688,41.63297017415365,27.257283528645832,18.978118896484375,20.093282063802082,0.118255615234375,0.010808308919270834,0.13033548990885416,0.0438690185546875,29.912948608398438,33.724466959635414
184.0,24.645487467447918,0.09791056315104167,0.057220458984375,0.0171661376953125,0.2581278483072917,36.66877746582031,33.871968587239586,24.262110392252605,23.052215576171875,24.11651611328125,0.13033548990885416,0.293731689453125,0.0324249267578125,0.08455912272135417,34.57069396972656,21.764119466145832
185.0,30.707041422526043,0.095367431640625,0.047047932942708336,0.0705718994140625,0.047047932942708336,32.72819519042969,28.052012125651043,31.960805257161457,33.810933430989586,32.559712727864586,0.041325887044270836,0.06930033365885417,0.11316935221354167,0.08837381998697917,21.954854329427082,23.817062377929688
186.0,36.85442606608073,0.029881795247395832,0.3509521484375,0.13287862141927084,0.023523966471354168,25.69262186686198,31.73510233561198,42.2515869140625,37.966410319010414,31.42102559407552,0.042597452799479164,0.09091695149739583,0.0025431315104166665,0.484466552734375,21.771748860677082,31.003316243489582
187.0,30.394872029622395,0.0031789143880208335,0.0629425048828125,0.14750162760416666,0.13287862141927084,28.218587239583332,39.507548014322914,35.23445129394531,20.410537719726562,20.189921061197918,0.12842814127604166,0.0019073486328125,0.027338663736979168,0.13605753580729166,26.91650390625,38.23661804199219
188.0,23.057937622070312,0.052134195963541664,0.10236104329427083,0.021616617838541668,0.15958150227864584,34.174601236979164,40.311177571614586,24.84448750813802,20.982106526692707,20.751317342122395,0.16466776529947916,0.13287862141927084,0.08392333984375,0.013987223307291666,35.692850748697914,27.487436930338543
189.0,26.737213134765625,0.13478597005208334,0.10426839192708333,0.2905527750651042,0.17484029134114584,35.86514790852865,28.92621358235677,28.216044108072918,27.659098307291668,27.226765950520832,0.2803802490234375,0.15385945638020834,0.011444091796875,0.4062652587890625,27.777989705403645,22.80108133951823
190.0,34.58277384440104,0.1125335693359375,0.16848246256510416,0.13287862141927084,0.052134195963541664,25.269190470377605,29.665629069010418,37.56586710611979,39.48020935058594,34.82755025227865,0.045140584309895836,0.1964569091796875,0.12461344401041667,0.0006357828776041666,18.590927124023438,26.694615681966145
191.0,37.7813975016276,0.12969970703125,0.09028116861979167,0.18056233723958334,0.07184346516927083,25.925954182942707,35.78313191731771,41.027069091796875,28.593063354492188,26.21014912923177,0.2873738606770833,0.07692972819010417,0.008900960286458334,0.3592173258463542,23.793538411458332,35.88676452636719
192.0,25.598526000976562,0.044504801432291664,0.0782012939453125,0.08074442545572917,0.4126230875651042,26.569366455078125,42.447408040364586,27.605056762695312,18.388748168945312,20.676930745442707,0.2721150716145833,0.2536773681640625,0.10045369466145833,0.12524922688802084,28.575897216796875,34.856160481770836
193.0,24.543126424153645,0.19900004069010416,0.11126200358072917,0.18056233723958334,0.13860066731770834,36.65733337402344,34.07986958821615,25.24248758951823,23.771921793619793,23.718516031901043,0.12461344401041667,0.2892812093098958,0.1049041748046875,0.0095367431640625,34.36279296875,21.989186604817707
194.0,28.983434041341145,0.0667572021484375,0.11507670084635417,0.12842814127604166,0.0743865966796875,33.33854675292969,27.749379475911457,31.91375732421875,33.50130716959635,31.126658121744793,0.16530354817708334,0.13415018717447916,0.18819173177083334,0.3579457600911458,22.410074869791668,23.239771525065105
195.0,37.12654113769531,0.005086263020833333,0.0591278076171875,0.030517578125,0.23523966471354166,24.368921915690105,31.179428100585938,41.843414306640625,38.15396626790365,32.12865193684896,0.07756551106770833,0.11126200358072917,0.15195210774739584,0.0782012939453125,20.47284444173177,30.434290568033855
196.0,29.31976318359375,0.022252400716145832,0.06993611653645833,0.0514984130859375,0.2193450927734375,27.031580607096355,38.75605265299479,37.11255391438802,21.99236551920573,19.704182942708332,0.06421407063802083,0.049591064453125,0.049591064453125,0.06993611653645833,26.4739990234375,37.65996297200521
197.0,22.657394409179688,0.3312428792317708,0.16911824544270834,0.12143452962239583,0.14940897623697916,32.742818196614586,39.911905924479164,25.014877319335938,20.744959513346355,20.065943400065105,0.18819173177083334,0.10236104329427083,0.11126200358072917,0.21680196126302084,34.73854064941406,27.552286783854168
198.0,25.908152262369793,0.0438690185546875,0.152587890625,0.057220458984375,0.11444091796875,35.54089864095052,28.939565022786457,28.595606486002605,27.584075927734375,26.564915974934895,0.194549560546875,0.07883707682291667,0.0591278076171875,0.2587636311848958,27.989705403645832,22.188186645507812
199.0,35.10093688964844,0.2950032552083333,0.43487548828125,0.1373291015625,0.024159749348958332,26.512781778971355,29.071807861328125,35.6591542561849,38.27985127766927,35.663604736328125,0.07756551106770833,0.13478597005208334,0.0858306884765625,0.13605753580729166,19.088109334309895,26.473363240559895
200.0,35.186767578125,0.17865498860677084,0.0324249267578125,0.064849853515625,0.17801920572916666,23.793538411458332,34.601847330729164,42.31897989908854,30.51312764485677,26.167551676432293,0.16085306803385416,0.14177958170572916,0.027974446614583332,0.3445943196614583,22.113800048828125,35.22809346516927
201.0,24.781545003255207,0.133514404296875,0.09473164876302083,0.2574920654296875,0.07184346516927083,29.674530029296875,42.5116221110026,28.84229024251302,18.614451090494793,19.529342651367188,0.22252400716145834,0.16276041666666666,0.11316935221354167,0.2651214599609375,30.515670776367188,35.02782185872396
202.0,25.177637736002605,0.19900004069010416,0.10617574055989583,0.1125335693359375,0.031789143880208336,35.05516052246094,34.32782491048177,24.49480692545573,22.891998291015625,23.507436116536457,0.06866455078125,0.2536773681640625,0.18564860026041666,0.17102559407552084,33.52038065592448,22.146224975585938
203.0,29.836018880208332,0.21998087565104166,0.22570292154947916,0.17865498860677084,0.006357828776041667,33.477783203125,27.394612630208332,31.148910522460938,32.48914082845052,31.401952107747395,0.012715657552083334,0.080108642578125,0.2524058024088542,0.043233235677083336,22.401809692382812,23.192087809244793
204.0,36.94788614908854,0.038782755533854164,0.10045369466145833,0.029881795247395832,0.3121693929036458,26.36400858561198,31.691869099934895,41.85358683268229,38.12090555826823,32.7301025390625,0.0457763671875,0.057856241861979164,0.040690104166666664,0.16530354817708334,21.668116251627605,30.634562174479168
205.0,29.462814331054688,0.13796488444010416,0.058492024739583336,0.5410512288411459,0.1068115234375,26.818593343098957,38.785298665364586,37.97785441080729,22.471110026041668,19.915262858072918,0.12842814127604166,0.049591064453125,0.15131632486979166,0.020345052083333332,26.185989379882812,38.26459248860677
206.0,22.867838541666668,0.045140584309895836,0.10617574055989583,0.08900960286458333,0.09663899739583333,32.38360087076823,41.29918416341146,25.318145751953125,20.712534586588543,20.172119140625,0.14813741048177084,0.005086263020833333,0.0057220458984375,0.217437744140625,34.441630045572914,28.481165568033855
207.0,27.34820048014323,0.17229715983072916,0.2587636311848958,0.054677327473958336,0.08900960286458333,34.8504384358724,29.256820678710938,26.280721028645832,26.386260986328125,27.680079142252605,0.0820159912109375,0.050226847330729164,0.026067097981770832,0.0972747802734375,28.171539306640625,22.275924682617188
208.0,32.98823038736979,0.0820159912109375,0.3846486409505208,0.10999043782552083,0.08265177408854167,27.685801188151043,29.143015543619793,36.11437479654948,37.87930806477865,34.96424357096354,0.12270609537760417,0.1087188720703125,0.0934600830078125,0.23206075032552084,19.536972045898438,26.43140157063802
209.0,36.13408406575521,0.044504801432291664,0.19073486328125,0.095367431640625,0.11889139811197917,25.304794311523438,34.63427225748698,42.819976806640625,30.942281087239582,26.702880859375,0.08900960286458333,0.003814697265625,0.06421407063802083,0.18246968587239584,22.633870442708332,35.08186340332031
210.0,26.697794596354168,0.12270609537760417,0.15195210774739584,0.09473164876302083,0.2689361572265625,27.060826619466145,42.43596394856771,27.960459391276043,17.971038818359375,20.674387613932293,0.039418538411458336,0.17547607421875,0.3897349039713542,0.20090738932291666,28.29742431640625,35.71383158365885
211.0,23.87237548828125,0.2829233805338542,0.0553131103515625,0.09600321451822917,0.0057220458984375,35.7062021891276,34.99921162923177,25.346120198567707,23.183186848958332,23.108800252278645,0.10172526041666667,0.16148885091145834,0.08646647135416667,0.046412150065104164,35.120646158854164,22.736867268880207
212.0,29.52893575032552,0.040690104166666664,0.08265177408854167,0.1659393310546875,0.07184346516927083,33.480326334635414,27.40478515625,31.194051106770832,32.198588053385414,31.187693277994793,0.038782755533854164,0.049591064453125,0.23714701334635416,0.057220458984375,22.993087768554688,23.30462137858073
213.0,37.25496927897135,0.13287862141927084,0.17801920572916666,0.21107991536458334,0.031789143880208336,24.838765462239582,31.018575032552082,41.150410970052086,38.683573404947914,32.96597798665365,0.21044413248697916,0.3452301025390625,0.1697540283203125,0.118255615234375,20.90009053548177,29.894510904947918
214.0,30.442555745442707,0.3344217936197917,0.13796488444010416,0.21107991536458334,0.019073486328125,25.117238362630207,38.27730814615885,38.36822509765625,23.360570271809895,20.310084025065105,0.20472208658854166,0.14050801595052084,0.3210703531901042,0.270843505859375,25.061925252278645,38.26777140299479
215.0,23.69244893391927,0.2384185791015625,0.16657511393229166,0.24159749348958334,0.06103515625,31.87115987141927,40.37602742513021,23.523966471354168,19.461313883463543,21.090189615885418,0.20345052083333334,0.018437703450520832,0.247955322265625,0.3210703531901042,33.6755116780599,28.638839721679688
216.0,25.266011555989582,0.033060709635416664,0.052769978841145836,0.1277923583984375,0.056584676106770836,37.08966573079427,29.058456420898438,28.158187866210938,27.130762736002605,25.905609130859375,0.06548563639322917,0.3039042154947917,0.08837381998697917,0.14050801595052084,30.226389567057293,21.895090738932293
217.0,34.40030415852865,0.06930033365885417,0.006357828776041667,0.232696533203125,0.022252400716145832,29.406229654947918,28.85754903157552,34.151713053385414,36.65796915690104,35.168965657552086,0.038782755533854164,0.2384185791015625,0.0820159912109375,0.017801920572916668,20.512898763020832,25.73076883951823
218.0,36.37059529622396,0.14368693033854166,0.15385945638020834,0.08519490559895833,0.1010894775390625,23.630777994791668,34.800211588541664,42.45630900065104,31.492869059244793,27.237574259440105,0.4037221272786458,0.08710225423177083,0.052769978841145836,0.050862630208333336,21.779378255208332,34.695943196614586
219.0,25.552113850911457,0.14750162760416666,0.11507670084635417,0.057220458984375,0.013987223307291666,28.821309407552082,42.74113972981771,29.84174092610677,18.472035725911457,19.005457560221355,0.13478597005208334,0.3286997477213542,0.1468658447265625,0.14432271321614584,29.46154276529948,35.59048970540365
220.0,23.408253987630207,0.11571248372395833,0.11444091796875,0.0057220458984375,0.10808308919270833,35.41437784830729,35.472869873046875,25.766372680664062,22.83795674641927,21.96057637532552,0.20345052083333334,0.0934600830078125,0.052134195963541664,0.024159749348958332,34.55543518066406,23.016611735026043
221.0,28.096516927083332,0.1468658447265625,0.014623006184895834,0.091552734375,0.10744730631510417,32.71802266438802,27.637481689453125,32.04917907714844,32.65508015950521,29.950459798177082,0.09028116861979167,0.038782755533854164,0.06993611653645833,0.11380513509114583,22.638956705729168,23.444493611653645
222.0,36.07940673828125,0.06548563639322917,0.02288818359375,0.22443135579427084,0.3662109375,24.881362915039062,31.286875406901043,41.615804036458336,39.06885782877604,32.86870320638021,0.13224283854166666,0.06993611653645833,0.0006357828776041666,0.3674825032552083,20.87084452311198,29.46917215983073
223.0,31.340281168619793,0.10426839192708333,0.041325887044270836,0.17611185709635416,0.022252400716145832,26.609420776367188,38.86731465657552,38.241068522135414,22.916793823242188,20.963033040364582,0.2155303955078125,0.07502237955729167,0.00762939453125,0.1983642578125,25.913238525390625,38.52971394856771
224.0,22.523244222005207,0.3999074300130208,0.06930033365885417,0.08074442545572917,0.0133514404296875,30.469894409179688,41.15740458170573,25.907516479492188,20.598729451497395,20.02398173014323,0.12652079264322916,0.008265177408854166,0.062306722005208336,0.029246012369791668,32.886505126953125,29.306411743164062
225.0,25.079727172851562,0.15894571940104166,0.10172526041666667,0.06357828776041667,0.17102559407552084,36.91927591959635,30.002593994140625,27.88988749186198,27.374903361002605,25.421778361002605,0.0324249267578125,0.049591064453125,0.10617574055989583,0.06930033365885417,30.000686645507812,21.89318339029948
226.0,31.786600748697918,0.2581278483072917,0.10808308919270833,0.057220458984375,0.125885009765625,29.23138936360677,28.039932250976562,35.619099934895836,37.60210673014323,34.28522745768229,0.00762939453125,0.18946329752604166,0.331878662109375,0.3382364908854167,20.06848653157552,25.30988057454427
227.0,36.509195963541664,0.10744730631510417,0.194549560546875,0.11571248372395833,0.044504801432291664,26.232401529947918,34.36279296875,42.15876261393229,31.954447428385418,26.743570963541668,0.016530354817708332,0.0025431315104166665,0.1201629638671875,0.012079874674479166,23.336410522460938,34.47850545247396
228.0,25.491078694661457,0.06993611653645833,0.0171661376953125,0.12079874674479167,0.22379557291666666,27.364095052083332,41.93878173828125,30.66571553548177,19.027074178059895,19.344329833984375,0.029246012369791668,0.17293294270833334,0.0438690185546875,0.1506805419921875,28.74755859375,36.64271036783854
229.0,24.007161458333332,0.18437703450520834,0.026702880859375,0.0858306884765625,0.014623006184895834,34.046173095703125,35.47541300455729,25.484085083007812,22.359212239583332,22.368748982747395,0.12969970703125,0.6313323974609375,0.1983642578125,0.16339619954427084,33.779144287109375,22.796630859375
230.0,28.867085774739582,0.07565816243489583,0.20472208658854166,0.0438690185546875,0.3045399983723958,32.376607259114586,27.453104654947918,31.252543131510418,31.690597534179688,30.031204223632812,0.013987223307291666,0.110626220703125,0.0820159912109375,0.20599365234375,22.739410400390625,22.811253865559895
231.0,38.70073954264323,0.02288818359375,0.10935465494791667,0.057856241861979164,0.0019073486328125,23.331324259440105,30.607223510742188,39.53679402669271,37.66695658365885,34.695943196614586,0.17992655436197916,0.029881795247395832,0.3058115641276042,0.21807352701822916,19.87139383951823,29.14746602376302
232.0,29.782613118489582,0.031789143880208336,0.018437703450520832,0.14623006184895834,0.18310546875,25.290807088216145,37.59193420410156,38.592020670572914,23.527145385742188,20.153045654296875,0.1430511474609375,0.23396809895833334,0.0820159912109375,0.2269744873046875,25.060653686523438,37.95496622721354
233.0,22.183736165364582,0.0006357828776041666,0.07565816243489583,0.021616617838541668,0.15894571940104166,31.734466552734375,41.065216064453125,25.140762329101562,20.271937052408855,19.563039143880207,0.18755594889322916,0.18946329752604166,0.3204345703125,0.0476837158203125,33.04227193196615,29.844919840494793
234.0,24.842580159505207,0.3204345703125,0.164031982421875,0.080108642578125,0.0247955322265625,37.302652994791664,31.098683675130207,27.63048807779948,26.103973388671875,25.223414103190105,0.061670939127604164,0.049591064453125,0.217437744140625,0.15385945638020834,30.83483378092448,22.483189900716145
235.0,32.480875651041664,0.22761027018229166,0.015894571940104168,0.10935465494791667,0.2384185791015625,28.800328572591145,28.463363647460938,35.998026529947914,37.386576334635414,34.281412760416664,0.1239776611328125,0.13987223307291666,0.06421407063802083,0.0591278076171875,19.831339518229168,25.56292215983073
236.0,35.81809997558594,0.14559427897135416,0.17229715983072916,0.033060709635416664,0.24159749348958334,24.446487426757812,33.94190470377604,43.14295450846354,32.985687255859375,27.5726318359375,0.0400543212890625,0.041325887044270836,0.0705718994140625,0.11189778645833333,21.956125895182293,33.794403076171875
237.0,26.00542704264323,0.22188822428385416,0.07184346516927083,0.024159749348958332,0.00762939453125,29.227574666341145,42.266845703125,31.494140625,19.268035888671875,19.270579020182293,0.0972747802734375,0.11507670084635417,0.0438690185546875,0.2117156982421875,29.287338256835938,37.68730163574219
238.0,22.93841044108073,0.026067097981770832,0.07120768229166667,0.0012715657552083333,0.13287862141927084,34.695943196614586,36.44243876139323,26.224136352539062,23.089090983072918,21.81688944498698,0.14940897623697916,0.036875406901041664,0.10172526041666667,0.11316935221354167,34.68132019042969,23.668289184570312
239.0,28.16009521484375,0.21044413248697916,0.0705718994140625,0.274658203125,0.11380513509114583,35.15942891438802,26.947657267252605,31.10504150390625,31.649271647135418,29.336293538411457,0.0400543212890625,0.048955281575520836,0.005086263020833333,0.2193450927734375,24.60797627766927,22.608439127604168
240.0,36.06096903483073,0.22761027018229166,0.021616617838541668,0.027338663736979168,0.015894571940104168,26.932398478190105,29.958089192708332,40.22789001464844,38.721720377604164,34.55225626627604,0.1659393310546875,0.10172526041666667,0.034968058268229164,0.041325887044270836,21.518707275390625,28.618494669596355
241.0,31.4178466796875,0.2193450927734375,0.087738037109375,0.14177958170572916,0.1888275146484375,25.194803873697918,37.99247741699219,39.581298828125,24.377822875976562,20.804087320963543,0.14241536458333334,0.18246968587239584,0.095367431640625,0.055948893229166664,24.569193522135418,38.2544199625651
242.0,24.53168233235677,0.16021728515625,0.2752939860026042,0.029246012369791668,0.18246968587239584,30.944188435872395,41.577657063802086,24.456024169921875,19.64569091796875,20.804087320963543,0.3795623779296875,0.08328755696614583,0.0171661376953125,0.044504801432291664,32.5018564860026,30.36944071451823
243.0,25.414784749348957,0.1010894775390625,0.15195210774739584,0.3312428792317708,0.056584676106770836,34.454345703125,29.85382080078125,27.124404907226562,26.503245035807293,25.421142578125,0.133514404296875,0.011444091796875,0.08900960286458333,0.0400543212890625,29.544830322265625,21.336873372395832
244.0,32.071431477864586,0.016530354817708332,0.16466776529947916,0.2892812093098958,0.06421407063802083,29.858907063802082,28.001149495442707,34.894307454427086,37.16850280761719,34.49376424153646,0.12270609537760417,0.017801920572916668,0.15322367350260416,0.040690104166666664,20.243326822916668,25.388081868489582
245.0,35.80665588378906,0.21807352701822916,0.08455912272135417,0.1544952392578125,0.06930033365885417,23.13995361328125,33.92728169759115,43.825785319010414,33.84526570638021,28.005599975585938,0.274658203125,0.19327799479166666,0.062306722005208336,0.15513102213541666,20.752588907877605,33.7988535563151
246.0,25.496164957682293,0.2886454264322917,0.0782012939453125,0.020345052083333332,0.4901885986328125,26.845296223958332,42.11870829264323,32.37215677897135,19.433975219726562,19.1650390625,0.1220703125,0.09409586588541667,0.049591064453125,0.06866455078125,27.912139892578125,37.45142618815104
247.0,24.178822835286457,0.15004475911458334,0.171661376953125,0.0591278076171875,0.061670939127604164,32.290140787760414,37.24988301595052,24.99071756998698,22.005716959635418,22.17419942220052,0.038782755533854164,0.2511342366536458,0.12842814127604166,0.038782755533854164,33.65898132324219,23.986180623372395
248.0,27.68389383951823,0.179290771484375,0.0400543212890625,0.0553131103515625,0.23206075032552084,31.05926513671875,27.642567952473957,30.370076497395832,31.240463256835938,29.79596455891927,0.308990478515625,0.0782012939453125,0.09473164876302083,0.040690104166666664,22.441864013671875,22.840499877929688
249.0,36.65987650553385,0.062306722005208336,0.09218851725260417,0.133514404296875,0.4221598307291667,25.282541910807293,30.397415161132812,39.94878133138021,39.01545206705729,34.15552775065104,0.12524922688802084,0.012715657552083334,0.10553995768229167,0.0705718994140625,20.540873209635418,28.754552205403645
250.0,32.19795227050781,0.15513102213541666,0.18946329752604166,0.0705718994140625,0.12270609537760417,27.552286783854168,37.85133361816406,39.520263671875,24.936676025390625,21.877288818359375,0.2460479736328125,0.2155303955078125,0.034968058268229164,0.15385945638020834,25.981903076171875,37.67712910970052
251.0,22.725423177083332,0.09600321451822917,0.247955322265625,0.13478597005208334,0.10744730631510417,30.61993916829427,41.347503662109375,26.589711507161457,20.931243896484375,19.710540771484375,0.15767415364583334,0.2683003743489583,0.2676645914713542,0.10808308919270833,32.344818115234375,30.769983927408855
252.0,26.37481689453125,0.308990478515625,0.13097127278645834,0.24541219075520834,0.22252400716145834,34.54907735188802,29.71331278483073,26.018778483072918,25.587717692057293,25.960286458333332,0.225067138671875,0.03814697265625,0.08328755696614583,0.1068115234375,29.78960673014323,21.076202392578125
253.0,31.79931640625,0.3032684326171875,0.035603841145833336,0.040690104166666664,0.07947285970052083,27.108510335286457,27.547200520833332,35.04117329915365,37.37449645996094,33.55725606282552,0.22824605305989584,0.004450480143229167,0.12143452962239583,0.029881795247395832,18.461863199869793,25.053024291992188
254.0,35.92236836751302,0.3509521484375,0.03814697265625,0.091552734375,0.16148885091145834,22.959391276041668,33.412933349609375,42.91343688964844,33.416748046875,28.101603190104168,0.015894571940104168,0.186920166015625,0.060399373372395836,0.09218851725260417,20.76276143391927,33.34935506184896
255.0,27.907689412434895,0.08328755696614583,0.08074442545572917,0.19900004069010416,0.036875406901041664,28.45001220703125,42.28909810384115,31.412124633789062,18.94378662109375,20.28338114420573,0.041961669921875,0.12715657552083334,0.16911824544270834,0.047047932942708336,28.606414794921875,38.060506184895836
256.0,23.38409423828125,0.2600351969401042,0.18819173177083334,0.072479248046875,0.3465016682942708,32.040913899739586,36.182403564453125,24.937947591145832,21.921793619791668,21.882375081380207,0.1964569091796875,0.034968058268229164,0.048955281575520836,0.3496805826822917,33.358256022135414,23.536046346028645
257.0,27.762095133463543,0.18628438313802084,0.23714701334635416,0.08074442545572917,0.3426869710286458,34.56433614095052,27.370452880859375,29.883702596028645,30.86090087890625,28.97198994954427,0.17611185709635416,0.244140625,0.013987223307291666,0.10236104329427083,24.435679117838543,23.10498555501302
258.0,35.861968994140625,0.23778279622395834,0.057220458984375,0.16085306803385416,0.2905527750651042,25.33276875813802,30.921300252278645,39.934794108072914,39.3530527750651,34.05952453613281,0.21107991536458334,0.048319498697916664,0.2899169921875,0.09218851725260417,20.173390706380207,29.205958048502605
259.0,33.35762023925781,0.037511189778645836,0.18246968587239584,0.050226847330729164,0.2759297688802083,25.45483907063802,37.48512268066406,39.4293467203776,24.756749471028645,23.031234741210938,0.3814697265625,0.041961669921875,0.045140584309895836,0.232696533203125,24.740854899088543,38.18829854329427
260.0,22.000630696614582,0.07692972819010417,0.3032684326171875,0.0400543212890625,0.11889139811197917,29.807408650716145,41.895548502604164,25.54766337076823,20.362218221028645,18.997828165690105,0.23333231608072916,0.14813741048177084,0.052769978841145836,0.010808308919270834,31.946818033854168,30.83483378092448
261.0,24.778366088867188,0.12143452962239583,0.11507670084635417,0.006993611653645833,0.156402587890625,34.6832275390625,30.913035074869793,26.84783935546875,25.78417460123698,24.656295776367188,0.2498626708984375,0.0324249267578125,0.148773193359375,0.324249267578125,30.213673909505207,21.299997965494793
262.0,33.495585123697914,0.030517578125,0.046412150065104164,0.08646647135416667,0.202178955078125,28.610865275065105,27.978897094726562,33.18150838216146,35.88104248046875,34.60884094238281,0.2886454264322917,0.15131632486979166,0.022252400716145832,0.11126200358072917,19.187291463216145,25.148391723632812
263.0,37.18757629394531,0.037511189778645836,0.023523966471354168,0.225067138671875,0.14623006184895834,22.945404052734375,32.92147318522135,42.5268809000651,33.49494934082031,28.79778544108073,0.036875406901041664,0.2848307291666667,0.024159749348958332,0.059763590494791664,20.69854736328125,32.871246337890625
264.0,26.049296061197918,0.0457763671875,0.06421407063802083,0.02288818359375,0.08646647135416667,28.498331705729168,41.31189982096354,31.968434651692707,18.707911173502605,19.117991129557293,0.156402587890625,0.08328755696614583,0.052134195963541664,0.0457763671875,28.665542602539062,38.074493408203125
265.0,21.661758422851562,0.17038981119791666,0.0972747802734375,0.0762939453125,0.010172526041666666,32.862345377604164,38.248697916666664,25.849660237630207,22.047678629557293,21.086374918619793,0.2835591634114583,0.118255615234375,0.095367431640625,0.3643035888671875,34.42827860514323,25.152842203776043
266.0,28.513590494791668,0.008265177408854166,0.14177958170572916,0.00762939453125,0.10172526041666667,34.11102294921875,27.632395426432293,29.1290283203125,30.269622802734375,29.35028076171875,0.07184346516927083,0.06357828776041667,0.02288818359375,0.2606709798177083,24.181365966796875,22.81634012858073
267.0,35.53326924641927,0.10045369466145833,0.3159840901692708,0.08392333984375,0.217437744140625,23.624420166015625,29.642105102539062,39.02244567871094,38.99574279785156,34.18668111165365,0.19709269205729166,0.0476837158203125,0.07502237955729167,0.10172526041666667,19.18347676595052,27.929306030273438
268.0,32.695770263671875,0.18056233723958334,0.24859110514322916,0.20726521809895834,0.0031789143880208335,25.145212809244793,37.28802998860677,40.31054178873698,25.224685668945312,21.63251241048177,0.0782012939453125,0.17674763997395834,0.0400543212890625,0.07120768229166667,24.2156982421875,37.541707356770836
269.0,22.775650024414062,0.1010894775390625,0.0553131103515625,0.08837381998697917,0.058492024739583336,29.566446940104168,41.7321523030599,25.30988057454427,19.641876220703125,19.510269165039062,0.018437703450520832,0.026702880859375,0.0629425048828125,0.16148885091145834,31.623204549153645,31.491597493489582
270.0,24.358749389648438,0.3757476806640625,0.1087188720703125,0.17038981119791666,0.09473164876302083,34.723917643229164,32.073974609375,26.694615681966145,25.66210428873698,24.628321329752605,0.2765655517578125,0.06548563639322917,0.18564860026041666,0.1277923583984375,31.10059102376302,22.138595581054688
271.0,31.281789143880207,0.2562204996744792,0.019709269205729168,0.017801920572916668,0.06612141927083333,28.171539306640625,28.062184651692707,33.2183837890625,35.81873575846354,33.56043497721354,0.2002716064453125,0.0553131103515625,0.10999043782552083,0.0019073486328125,18.906275431315105,25.316238403320312
272.0,36.42463684082031,0.09791056315104167,0.072479248046875,0.0006357828776041666,0.09473164876302083,24.923960367838543,33.2647959391276,42.93696085611979,34.16633605957031,29.302597045898438,0.11316935221354167,0.039418538411458336,0.07565816243489583,0.2740224202473958,21.837234497070312,32.430013020833336
273.0,28.496424357096355,0.06739298502604167,0.19391377766927084,0.19137064615885416,0.18437703450520834,26.980082194010418,41.57574971516927,31.215667724609375,18.089930216471355,19.7906494140625,0.4762013753255208,0.09981791178385417,0.031153361002604168,0.054041544596354164,27.437210083007812,37.097930908203125
274.0,23.031234741210938,0.0324249267578125,0.12842814127604166,0.09282430013020833,0.06612141927083333,34.229278564453125,37.65296936035156,25.717417399088543,21.886189778645832,21.688461303710938,0.06993611653645833,0.19709269205729166,0.13860066731770834,0.10999043782552083,35.46969095865885,24.758656819661457
275.0,27.62158711751302,0.07565816243489583,0.14432271321614584,0.21616617838541666,0.2638498942057292,34.51093037923177,27.299880981445312,30.191421508789062,30.804951985677082,28.580347696940105,0.17992655436197916,0.09981791178385417,0.164031982421875,0.029881795247395832,24.89789326985677,22.359848022460938
276.0,35.8435312906901,0.050226847330729164,0.030517578125,0.010808308919270834,0.209808349609375,24.663925170898438,29.686609903971355,39.03834025065104,39.64360555013021,34.16570027669271,0.0457763671875,0.21425882975260416,0.14940897623697916,0.1850128173828125,19.696553548177082,28.067906697591145
277.0,32.52347310384115,0.14750162760416666,0.1163482666015625,0.194549560546875,0.20599365234375,23.230234781901043,36.60392761230469,40.20245869954427,25.847117106119793,22.25176493326823,0.08646647135416667,0.037511189778645836,0.010808308919270834,0.11571248372395833,23.31860860188802,36.90020243326823
278.0,22.909164428710938,0.13796488444010416,0.059763590494791664,0.14241536458333334,0.22379557291666666,29.81122334798177,42.2051747639974,25.477091471354168,19.378026326497395,19.332249959309895,0.274658203125,0.12906392415364584,0.07311503092447917,0.14559427897135416,31.992594401041668,32.17887878417969
279.0,24.045308430989582,0.2606709798177083,0.10744730631510417,0.0362396240234375,0.13860066731770834,36.9873046875,32.21893310546875,26.63866678873698,25.395711263020832,24.384816487630207,0.18246968587239584,0.08138020833333333,0.1659393310546875,0.14177958170572916,32.21321105957031,21.81561787923177
280.0,30.82275390625,0.058492024739583336,0.12461344401041667,0.2880096435546875,0.110626220703125,28.093973795572918,28.17853291829427,33.98704528808594,35.91219584147135,33.465067545572914,0.027974446614583332,0.23523966471354166,0.06993611653645833,0.0247955322265625,19.13897196451823,24.992624918619793
281.0,36.94279988606771,0.11698404947916667,0.0006357828776041666,0.0705718994140625,0.052769978841145836,25.297164916992188,33.35444132486979,43.51170857747396,35.491943359375,29.527664184570312,0.15195210774739584,0.05340576171875,0.3058115641276042,0.09600321451822917,21.790186564127605,32.520294189453125
282.0,27.745564778645832,0.18437703450520834,0.5664825439453125,0.22188822428385416,0.1354217529296875,27.519861857096355,41.132609049479164,32.955169677734375,19.073486328125,18.739064534505207,0.030517578125,0.034968058268229164,0.044504801432291664,0.2568562825520833,27.709325154622395,37.693023681640625
283.0,22.364298502604168,0.2911885579427083,0.1983642578125,0.016530354817708332,0.14940897623697916,34.18540954589844,38.238525390625,25.155385335286457,21.527608235677082,20.689010620117188,0.0896453857421875,0.06357828776041667,0.08455912272135417,0.0133514404296875,35.28912862141927,25.259653727213543
284.0,27.11041768391927,0.06739298502604167,0.08392333984375,0.133514404296875,0.11698404947916667,35.31646728515625,27.33167012532552,29.413223266601562,29.77307637532552,28.504689534505207,0.029881795247395832,0.0019073486328125,0.0667572021484375,0.10808308919270833,25.76891581217448,22.547403971354168
285.0,34.85552469889323,0.15958150227864584,0.3261566162109375,0.3236134847005208,0.042597452799479164,26.767730712890625,30.23529052734375,38.701375325520836,39.371490478515625,34.3621571858724,0.062306722005208336,0.041961669921875,0.034332275390625,0.13605753580729166,21.13024393717448,28.260548909505207
286.0,33.91265869140625,0.09663899739583333,0.186920166015625,0.08900960286458333,0.055948893229166664,26.609420776367188,36.92309061686198,40.700276692708336,26.606241861979168,23.100535074869793,0.038782755533854164,0.18310546875,0.17801920572916666,0.1888275146484375,24.559656778971355,36.97522481282552
287.0,23.694992065429688,0.1392364501953125,0.0247955322265625,0.13287862141927084,0.0667572021484375,31.57488505045573,42.59300231933594,25.3143310546875,18.82171630859375,19.64886983235677,0.530242919921875,0.14813741048177084,0.22951761881510416,0.0362396240234375,32.642364501953125,32.58514404296875
288.0,24.305979410807293,0.11698404947916667,0.213623046875,0.048955281575520836,0.07756551106770833,35.46269734700521,32.74408976236979,25.323232014973957,24.316151936848957,24.54376220703125,0.21616617838541666,0.19582112630208334,0.3382364908854167,0.055948893229166664,30.72802225748698,21.506627400716145
289.0,30.609130859375,0.024159749348958332,0.0438690185546875,0.2231597900390625,0.2810160319010417,27.492523193359375,27.734756469726562,33.67424011230469,35.42455037434896,32.64427185058594,0.0782012939453125,0.07565816243489583,0.019073486328125,0.033060709635416664,18.526713053385418,24.526596069335938
290.0,35.86578369140625,0.023523966471354168,0.14050801595052084,0.1239776611328125,0.286102294921875,23.782094319661457,32.056172688802086,42.20898946126302,35.04816691080729,29.847462972005207,0.21998087565104166,0.0025431315104166665,0.010808308919270834,0.2886454264322917,21.081288655598957,31.554539998372395
291.0,27.086257934570312,0.021616617838541668,0.06612141927083333,0.08455912272135417,0.20345052083333334,26.99597676595052,41.751861572265625,32.848358154296875,19.124348958333332,18.616358439127605,0.022252400716145832,0.22379557291666666,0.02288818359375,0.0667572021484375,27.39715576171875,37.974039713541664
292.0,22.463480631510418,0.029246012369791668,0.09028116861979167,0.062306722005208336,0.08074442545572917,31.520843505859375,38.81645202636719,24.99707539876302,21.284103393554688,20.6451416015625,0.010808308919270834,0.11507670084635417,0.18374125162760416,0.019073486328125,34.11293029785156,25.473912556966145
293.0,28.446197509765625,0.08837381998697917,0.012079874674479166,0.18755594889322916,0.4412333170572917,32.848358154296875,27.421951293945312,28.217315673828125,29.019673665364582,29.00377909342448,0.545501708984375,0.061670939127604164,0.035603841145833336,0.054677327473958336,24.63531494140625,22.618611653645832
294.0,35.977681477864586,0.186920166015625,0.06612141927083333,0.1125335693359375,0.06739298502604167,23.623148600260418,29.449462890625,37.14561462402344,39.09111022949219,34.525553385416664,0.1373291015625,0.15131632486979166,0.07184346516927083,0.031789143880208336,18.499374389648438,27.75128682454427
295.0,33.477783203125,0.038782755533854164,0.07120768229166667,0.0457763671875,0.2040863037109375,25.499979654947918,36.69548034667969,41.1376953125,26.381810506184895,23.197174072265625,0.056584676106770836,0.25177001953125,0.029881795247395832,0.11380513509114583,23.97600809733073,36.7272694905599
296.0,22.863388061523438,0.11444091796875,0.09091695149739583,0.0782012939453125,0.050862630208333336,31.564076741536457,42.36920674641927,26.28008524576823,19.54332987467448,19.531885782877605,0.0400543212890625,0.044504801432291664,0.12652079264322916,0.21616617838541666,32.39758809407552,33.02637736002604
297.0,24.420420328776043,0.08392333984375,0.06548563639322917,0.16466776529947916,0.14623006184895834,34.52301025390625,32.15916951497396,26.312510172526043,24.521509806315105,23.822784423828125,0.22061665852864584,0.003814697265625,0.1926422119140625,0.029881795247395832,31.771341959635418,22.146860758463543
298.0,31.234105428059895,0.2714792887369792,0.14813741048177084,0.21235148111979166,0.026067097981770832,30.75726826985677,28.128941853841145,33.17896525065104,35.13526916503906,33.22410583496094,0.0171661376953125,0.23587544759114584,0.058492024739583336,0.017801920572916668,19.875208536783855,24.316787719726562
299.0,36.71709696451823,0.2721150716145833,0.026067097981770832,0.156402587890625,0.09981791178385417,25.883992513020832,31.889597574869793,42.60571797688802,35.961151123046875,30.50676981608073,0.10744730631510417,0.12715657552083334,0.10744730631510417,0.2384185791015625,21.871566772460938,31.424204508463543
300.0,26.895523071289062,0.09981791178385417,0.14623006184895834,0.37384033203125,0.16021728515625,26.214599609375,41.13070170084635,33.66978963216146,19.337972005208332,19.018809000651043,0.17293294270833334,0.23587544759114584,0.08646647135416667,0.0031789143880208335,26.718775431315105,37.74325052897135
301.0,24.001439412434895,0.06421407063802083,0.22951761881510416,0.19009908040364584,0.059763590494791664,34.17332967122396,38.852691650390625,23.717244466145832,20.22997538248698,21.519978841145832,0.0012715657552083333,0.0972747802734375,0.12270609537760417,0.20090738932291666,35.9490712483724,25.84075927734375
302.0,26.954015096028645,0.23206075032552084,0.2079010009765625,0.1544952392578125,0.17801920572916666,36.83153788248698,27.69788106282552,29.451370239257812,29.600143432617188,27.867635091145832,0.010172526041666666,0.005086263020833333,0.110626220703125,0.1678466796875,27.15301513671875,22.692362467447918
303.0,34.93436177571615,0.1773834228515625,0.1678466796875,0.08138020833333333,0.13669331868489584,24.084726969401043,29.471079508463543,38.0395253499349,39.937337239583336,34.571329752604164,0.06357828776041667,0.11952718098958333,0.07692972819010417,0.23969014485677084,18.94378662109375,27.688344319661457
304.0,33.94953409830729,0.15004475911458334,0.1468658447265625,0.07692972819010417,0.0095367431640625,25.57055155436198,36.34961446126302,40.80327351888021,27.001063028971355,23.805618286132812,0.1125335693359375,0.2905527750651042,0.041961669921875,0.13987223307291666,24.042129516601562,36.77177429199219
305.0,23.07446797688802,0.0324249267578125,0.012715657552083334,0.014623006184895834,0.1430511474609375,27.645111083984375,42.21216837565104,26.68317159016927,19.258499145507812,19.261678059895832,0.004450480143229167,0.004450480143229167,0.0006357828776041666,0.0057220458984375,30.517578125,32.73709615071615
306.0,25.388081868489582,0.09663899739583333,0.24922688802083334,0.041961669921875,0.1964569091796875,36.50601704915365,32.09559122721354,25.310516357421875,24.236679077148438,24.419784545898438,0.3267923990885417,0.09663899739583333,0.3808339436848958,0.0476837158203125,33.037821451822914,21.624247233072918
307.0,31.015396118164062,0.1659393310546875,0.008265177408854166,0.1163482666015625,0.0324249267578125,31.625111897786457,27.933120727539062,32.649993896484375,34.5001220703125,32.62774149576823,0.18946329752604166,0.045140584309895836,0.14050801595052084,0.316619873046875,21.06475830078125,24.254480997721355
308.0,36.82072957356771,0.024159749348958332,0.2530415852864583,0.21044413248697916,0.025431315104166668,23.939768473307293,31.914393107096355,42.37810770670573,35.84734598795573,30.768712361653645,0.16339619954427084,0.14623006184895834,0.005086263020833333,0.2040863037109375,21.016438802083332,31.20740254720052
309.0,27.611414591471355,0.2651214599609375,0.0591278076171875,0.058492024739583336,0.213623046875,27.886072794596355,40.24505615234375,33.9501698811849,19.687652587890625,18.915812174479168,0.14813741048177084,0.0438690185546875,0.048955281575520836,0.12461344401041667,27.573267618815105,37.16150919596354
310.0,23.325602213541668,0.011444091796875,0.060399373372395836,0.0476837158203125,0.3388722737630208,33.388773600260414,38.44134012858073,24.92968241373698,21.639506022135418,21.135965983072918,0.09473164876302083,0.2593994140625,0.0324249267578125,0.1850128173828125,35.31201680501302,26.056925455729168
311.0,26.580810546875,0.06993611653645833,0.031153361002604168,0.026067097981770832,0.06802876790364583,36.29430135091146,27.414321899414062,28.779347737630207,28.620402018229168,27.619043986002605,0.3840128580729167,0.21870930989583334,0.3522237141927083,0.10617574055989583,27.01250712076823,22.0947265625
312.0,34.389495849609375,0.3573099772135417,0.050862630208333336,0.24668375651041666,0.125885009765625,24.8260498046875,29.101053873697918,36.68848673502604,39.37403361002604,34.71183776855469,0.16021728515625,0.0362396240234375,0.0553131103515625,0.055948893229166664,19.248326619466145,27.121861775716145
313.0,33.76007080078125,0.4278818766276042,0.1354217529296875,0.018437703450520832,0.19900004069010416,22.945404052734375,35.456339518229164,41.278839111328125,27.449289957682293,23.717244466145832,0.09028116861979167,0.025431315104166668,0.012715657552083334,0.0025431315104166665,22.718429565429688,36.23835245768229
314.0,22.8118896484375,0.08646647135416667,0.1430511474609375,0.006357828776041667,0.0476837158203125,28.406778971354168,42.14795430501302,26.80651346842448,19.614537556966145,19.080479939778645,0.24096171061197916,0.3534952799479167,0.2702077229817708,0.24159749348958334,30.051549275716145,32.99776713053385
315.0,24.312973022460938,0.17611185709635416,0.09918212890625,0.1373291015625,0.07184346516927083,36.458333333333336,32.93482462565104,26.185989379882812,24.404525756835938,23.736317952473957,0.010172526041666666,0.301361083984375,0.1163482666015625,0.10808308919270833,33.16561381022135,21.820704142252605
316.0,31.090418497721355,0.21235148111979166,0.011444091796875,0.17992655436197916,0.2155303955078125,28.767903645833332,27.910232543945312,32.093048095703125,34.456888834635414,32.8057607014974,0.0972747802734375,0.1201629638671875,0.022252400716145832,0.2155303955078125,19.367218017578125,24.161020914713543
317.0,39.53425089518229,0.14559427897135416,0.11126200358072917,0.061670939127604164,0.10744730631510417,24.878184000651043,31.894683837890625,40.34105936686198,35.45506795247396,32.04917907714844,0.0171661376953125,0.07692972819010417,0.06866455078125,0.19582112630208334,21.166483561197918,31.539281209309895
318.0,29.41449483235677,0.23142496744791666,0.13097127278645834,0.1697540283203125,0.24350484212239584,28.650283813476562,40.76385498046875,34.0429941813151,19.594192504882812,19.706090291341145,0.2994537353515625,0.0057220458984375,0.15131632486979166,0.308990478515625,27.76781717936198,38.15523783365885
319.0,21.759668986002605,0.0012715657552083333,0.0934600830078125,0.1506805419921875,0.08074442545572917,31.117757161458332,39.37403361002604,25.238672892252605,21.713892618815105,19.903182983398438,0.022252400716145832,0.110626220703125,0.16466776529947916,0.005086263020833333,34.077962239583336,26.558558146158855
320.0,25.923411051432293,0.2651214599609375,0.4558563232421875,0.16848246256510416,0.1659393310546875,35.62164306640625,28.389612833658855,28.43157450358073,28.432210286458332,27.13457743326823,0.015894571940104168,0.055948893229166664,0.07311503092447917,0.11889139811197917,27.051289876302082,22.905985514322918
321.0,35.09648640950521,0.07375081380208333,0.0629425048828125,0.013987223307291666,0.12969970703125,25.328954060872395,29.928207397460938,37.01591491699219,39.64996337890625,34.55289204915365,0.16021728515625,0.042597452799479164,0.08900960286458333,0.15767415364583334,19.09637451171875,27.588526407877605
322.0,35.07423400878906,0.11761983235677083,0.087738037109375,0.006993611653645833,0.09218851725260417,23.161570231119793,35.976409912109375,41.903177897135414,28.27008565266927,24.735768636067707,0.06930033365885417,0.16848246256510416,0.19518534342447916,0.20599365234375,22.328694661458332,36.298116048177086
323.0,23.07891845703125,0.15703837076822916,0.2613067626953125,0.0972747802734375,0.10045369466145833,28.771082560221355,42.45630900065104,27.79388427734375,19.753774007161457,19.053141276041668,0.15703837076822916,0.15767415364583334,0.335693359375,0.12842814127604166,29.921849568684895,33.4631601969401
324.0,23.470560709635418,0.013987223307291666,0.10744730631510417,0.10045369466145833,0.15195210774739584,36.19066874186198,33.1414540608724,25.835673014322918,24.24939473470052,23.125330607096355,0.1773834228515625,0.13415018717447916,0.10172526041666667,0.0934600830078125,33.733367919921875,21.797815958658855
325.0,30.30077616373698,0.377655029296875,0.060399373372395836,0.12652079264322916,0.057856241861979164,30.851999918619793,28.191884358723957,33.22474161783854,34.51728820800781,32.34418233235677,0.021616617838541668,0.005086263020833333,0.087738037109375,0.08837381998697917,21.050771077473957,24.204254150390625
326.0,37.478129069010414,0.12969970703125,0.4520416259765625,0.06548563639322917,0.2733866373697917,23.75475565592448,31.928380330403645,42.467753092447914,37.29565938313802,31.400044759114582,0.1392364501953125,0.240325927734375,0.030517578125,0.1964569091796875,20.952860514322918,31.31866455078125
327.0,28.378804524739582,0.16848246256510416,0.12079874674479167,0.12969970703125,0.14559427897135416,25.676727294921875,40.117899576822914,35.037994384765625,20.619710286458332,19.20318603515625,0.027974446614583332,0.07692972819010417,0.0858306884765625,0.0209808349609375,25.844573974609375,37.7038319905599
328.0,22.38782246907552,0.0324249267578125,0.4100799560546875,0.07756551106770833,0.006993611653645833,30.318578084309895,39.0466054280599,25.441487630208332,21.596272786458332,20.242055257161457,0.050862630208333336,0.14241536458333334,0.0324249267578125,0.13287862141927084,33.68250528971354,26.720682779947918
329.0,27.394612630208332,0.152587890625,0.026067097981770832,0.1983642578125,0.10744730631510417,35.664876302083336,27.842203776041668,27.781168619791668,27.85046895345052,27.862548828125,0.2644856770833333,0.0858306884765625,0.0629425048828125,0.2346038818359375,27.437210083007812,21.549224853515625
330.0,34.12501017252604,0.12461344401041667,0.10935465494791667,0.06357828776041667,0.152587890625,25.262832641601562,28.672536214192707,37.24988301595052,39.6416982014974,34.44862365722656,0.0858306884765625,0.240325927734375,0.1468658447265625,0.14750162760416666,19.290924072265625,26.69843037923177
331.0,33.695220947265625,0.014623006184895834,0.0514984130859375,0.1220703125,0.3592173258463542,26.01941426595052,35.22046407063802,42.33996073404948,28.97198994954427,24.016698201497395,0.2969106038411458,0.07565816243489583,0.1316070556640625,0.0591278076171875,24.115880330403645,35.81555684407552
332.0,22.569656372070312,0.2568562825520833,0.12652079264322916,0.09854634602864583,0.0782012939453125,30.731836954752605,42.20771789550781,27.313868204752605,19.219080607096355,18.984476725260418,0.057856241861979164,0.16466776529947916,0.4215240478515625,0.08265177408854167,31.3568115234375,33.641815185546875
333.0,23.229598999023438,0.1049041748046875,0.16657511393229166,0.010808308919270834,0.18056233723958334,34.497578938802086,33.74354044596354,26.297887166341145,24.326324462890625,23.217519124348957,0.0012715657552083333,0.12652079264322916,0.0362396240234375,0.17674763997395834,32.99903869628906,21.612803141276043
334.0,30.333836873372395,0.16657511393229166,0.019073486328125,0.005086263020833333,0.4711151123046875,31.807581583658855,27.489344278971355,32.6989491780599,34.12691752115885,32.34036763509115,0.033060709635416664,0.13605753580729166,0.037511189778645836,0.16848246256510416,21.710713704427082,23.436228434244793
335.0,36.913553873697914,0.07311503092447917,0.0057220458984375,0.1373291015625,0.08646647135416667,24.40325419108073,32.31684366861979,42.584737141927086,37.724812825520836,31.38415018717448,0.4030863444010417,0.1983642578125,0.023523966471354168,0.14750162760416666,20.90899149576823,31.466166178385418
336.0,28.464635213216145,0.35858154296875,0.21616617838541666,0.13987223307291666,0.15958150227864584,25.748570760091145,39.89473978678385,36.10038757324219,20.499547322591145,19.67175801595052,0.014623006184895834,0.171661376953125,0.24350484212239584,0.2231597900390625,26.146570841471355,37.915547688802086
337.0,22.532145182291668,0.0553131103515625,0.015894571940104168,0.031789143880208336,0.11698404947916667,33.38623046875,40.03334045410156,25.243123372395832,21.069844563802082,20.093282063802082,0.044504801432291664,0.15385945638020834,0.033060709635416664,0.4189809163411458,35.319010416666664,27.32404073079427
338.0,26.404062906901043,0.12079874674479167,0.1316070556640625,0.17102559407552084,0.1621246337890625,35.93254089355469,29.29369608561198,28.524398803710938,28.331756591796875,27.486801147460938,0.3083546956380208,0.0591278076171875,0.23142496744791666,0.12079874674479167,27.498245239257812,22.97528584798177
339.0,34.56687927246094,0.10553995768229167,0.10617574055989583,0.087738037109375,0.19137064615885416,26.650746663411457,29.265085856119793,36.74443562825521,39.41154479980469,34.62982177734375,0.011444091796875,0.3007253011067708,0.19772847493489584,0.08455912272135417,19.547780354817707,26.852925618489582
340.0,34.95597839355469,0.06421407063802083,0.1544952392578125,0.08519490559895833,0.017801920572916668,24.261474609375,35.13145446777344,42.13396708170573,28.848012288411457,25.323867797851562,0.014623006184895834,0.0286102294921875,0.11698404947916667,0.1125335693359375,22.87610371907552,35.74371337890625
341.0,22.948582967122395,0.10426839192708333,0.062306722005208336,0.037511189778645836,0.0667572021484375,30.190149943033855,42.38255818684896,28.039296468098957,19.332249959309895,18.866221110026043,0.370025634765625,0.062306722005208336,0.10553995768229167,0.21235148111979166,31.230926513671875,34.09258524576823
342.0,25.881449381510418,0.0934600830078125,0.2791086832682292,0.004450480143229167,0.15894571940104166,36.50474548339844,33.69712829589844,24.023691813151043,23.049036661783855,24.183273315429688,0.023523966471354168,0.20281473795572916,0.0012715657552083333,0.3083546956380208,34.23436482747396,21.769205729166668
343.0,30.441919962565105,0.164031982421875,0.10236104329427083,0.024159749348958332,0.08328755696614583,31.394322713216145,27.124404907226562,32.21893310546875,33.597310384114586,32.056172688802086,0.0095367431640625,0.4170735677083333,0.020345052083333332,0.12270609537760417,21.104176839192707,23.199081420898438
344.0,37.11764017740885,0.2307891845703125,0.11952718098958333,0.15703837076822916,0.2930959065755208,22.83032735188802,31.881968180338543,41.50199890136719,37.66314188639323,32.047271728515625,0.12715657552083334,0.048319498697916664,0.06739298502604167,0.095367431640625,20.012537638346355,31.145731608072918
345.0,29.354095458984375,0.0324249267578125,0.18755594889322916,0.13478597005208334,0.09218851725260417,24.175643920898438,39.96467590332031,36.432902018229164,20.824432373046875,19.010543823242188,0.06103515625,0.019709269205729168,0.1811981201171875,0.2676645914713542,24.659474690755207,38.26077779134115
346.0,23.075103759765625,0.213623046875,0.072479248046875,0.036875406901041664,0.14050801595052084,31.35236104329427,39.55205281575521,25.035858154296875,20.739237467447918,20.102818806966145,0.17102559407552084,0.1506805419921875,0.011444091796875,0.029246012369791668,33.88659159342448,27.17908223470052
347.0,27.498245239257812,0.13860066731770834,0.23523966471354166,0.2422332763671875,0.14940897623697916,36.89384460449219,28.38897705078125,27.757008870442707,27.376810709635418,27.914683024088543,0.3267923990885417,0.3306070963541667,0.0133514404296875,0.1010894775390625,28.142293294270832,22.202173868815105
348.0,34.80656941731771,0.09282430013020833,0.061670939127604164,0.20090738932291666,0.050226847330729164,25.562286376953125,29.05718485514323,37.43108113606771,39.402008056640625,34.73790486653646,0.019709269205729168,0.2810160319010417,0.1125335693359375,0.0705718994140625,19.059499104817707,26.75946553548177
349.0,34.90002950032552,0.16530354817708334,0.17801920572916666,0.19963582356770834,0.08646647135416667,22.812525431315105,34.43145751953125,42.28846232096354,29.242833455403645,25.113423665364582,0.036875406901041664,0.3751118977864583,0.186920166015625,0.3172556559244792,21.757125854492188,35.45824686686198
350.0,23.340225219726562,0.1621246337890625,0.09028116861979167,0.10172526041666667,0.08138020833333333,26.702880859375,41.90508524576823,28.230031331380207,18.847147623697918,18.90118916829427,0.062306722005208336,0.0095367431640625,0.10553995768229167,0.1697540283203125,28.600056966145832,34.3011220296224
351.0,23.207982381184895,0.07311503092447917,0.027974446614583332,0.1125335693359375,0.18374125162760416,33.56107076009115,34.09131368001302,25.432586669921875,23.502349853515625,22.820790608723957,0.006993611653645833,0.020345052083333332,0.062306722005208336,0.036875406901041664,32.681783040364586,22.034962972005207
352.0,29.41131591796875,0.2816518147786458,0.12906392415364584,0.010172526041666666,0.0133514404296875,32.05235799153646,28.016408284505207,32.45671590169271,33.510843912760414,31.785964965820312,0.1544952392578125,0.21616617838541666,0.095367431640625,0.10363260904947917,21.735509236653645,23.537317911783855
353.0,37.2931162516276,0.179290771484375,0.029246012369791668,0.08837381998697917,0.0152587890625,23.070017496744793,31.61938985188802,42.017618815104164,38.035074869791664,31.75671895345052,0.3439585367838542,0.08900960286458333,0.027974446614583332,0.047047932942708336,19.902547200520832,30.751546223958332
354.0,31.209309895833332,0.16848246256510416,0.2543131510416667,0.058492024739583336,0.041325887044270836,26.135762532552082,39.36640421549479,34.777323404947914,20.58092753092448,20.785013834635418,0.35858154296875,0.21107991536458334,0.08646647135416667,0.0629425048828125,25.934855143229168,37.923177083333336
355.0,22.81951904296875,0.2683003743489583,0.2651214599609375,0.019709269205729168,0.012079874674479166,30.340830485026043,39.59337870279948,24.998982747395832,20.375569661458332,20.341237386067707,0.18374125162760416,0.2040863037109375,0.19137064615885416,0.07502237955729167,33.20948282877604,27.480443318684895
356.0,26.315053304036457,0.179290771484375,0.072479248046875,0.19963582356770834,0.0025431315104166665,34.6221923828125,28.589884440104168,27.806599934895832,27.79706319173177,27.08117167154948,0.1316070556640625,0.4634857177734375,0.0629425048828125,0.209808349609375,27.50078837076823,22.115707397460938
357.0,34.032185872395836,0.10426839192708333,0.23523966471354166,0.006357828776041667,0.10935465494791667,25.819778442382812,28.839747111002605,36.71900431315104,38.87176513671875,34.84980265299479,0.23523966471354166,0.07375081380208333,0.12143452962239583,0.0896453857421875,18.918991088867188,26.802698771158855
358.0,35.33236185709635,0.06612141927083333,0.045140584309895836,0.034332275390625,0.0896453857421875,23.984909057617188,34.329732259114586,42.2509511311849,29.754638671875,25.353113810221355,0.0171661376953125,0.07120768229166667,0.14368693033854166,0.270843505859375,22.36620585123698,34.94898478190104
359.0,23.512522379557293,0.1430511474609375,0.00762939453125,0.19772847493489584,0.031789143880208336,27.792612711588543,42.27765401204427,28.94147237141927,19.08111572265625,19.201278686523438,0.018437703450520832,0.3801981608072917,0.044504801432291664,0.3916422526041667,29.181162516276043,34.313201904296875
360.0,22.851943969726562,0.13860066731770834,0.0705718994140625,0.19200642903645834,0.06802876790364583,36.64970397949219,34.039815266927086,26.121775309244793,23.843129475911457,22.767384847005207,0.0858306884765625,0.021616617838541668,0.004450480143229167,0.0400543212890625,34.459431966145836,22.02161153157552
361.0,29.837290445963543,0.17102559407552084,0.019709269205729168,0.06739298502604167,0.07692972819010417,32.43827819824219,27.467727661132812,31.316121419270832,32.87633260091146,31.748453776041668,0.20917256673177084,0.11889139811197917,0.10744730631510417,0.324249267578125,21.91162109375,23.28046162923177
362.0,37.13162740071615,0.2231597900390625,0.11889139811197917,0.058492024739583336,0.06421407063802083,23.291269938151043,30.525843302408855,41.501363118489586,37.73689270019531,31.707127888997395,0.270843505859375,0.008900960286458334,0.370025634765625,0.08074442545572917,19.816080729166668,29.905319213867188
363.0,29.448191324869793,0.22570292154947916,0.13987223307291666,0.07883707682291667,0.15894571940104166,25.277455647786457,38.724263509114586,36.40302022298177,21.649678548177082,19.880930582682293,0.21235148111979166,0.12143452962239583,0.1163482666015625,0.1583099365234375,25.45928955078125,38.111368815104164
364.0,25.231679280598957,0.3045399983723958,0.3414154052734375,0.017801920572916668,0.072479248046875,30.302683512369793,39.670308430989586,22.668838500976562,19.02325948079427,21.396636962890625,0.1621246337890625,0.087738037109375,0.072479248046875,0.20345052083333334,33.0664316813151,27.657826741536457
365.0,26.03912353515625,0.1926422119140625,0.3655751546223958,0.3058115641276042,0.12079874674479167,33.72065226236979,28.08698018391927,27.306238810221355,27.304967244466145,26.871363321940105,0.018437703450520832,0.0025431315104166665,0.091552734375,0.21107991536458334,26.864369710286457,21.930694580078125
366.0,33.80139668782552,0.3153483072916667,0.20535786946614584,0.057856241861979164,0.00762939453125,25.553385416666668,28.230031331380207,36.37250264485677,38.693745930989586,34.45879618326823,0.0629425048828125,0.048319498697916664,0.12715657552083334,0.0400543212890625,18.347422281901043,25.900522867838543
367.0,36.4844004313151,0.0820159912109375,0.14750162760416666,0.027974446614583332,0.003814697265625,25.109608968098957,34.0735117594401,40.973663330078125,29.378890991210938,26.160558064778645,0.13860066731770834,0.22824605305989584,0.2193450927734375,0.14432271321614584,23.001988728841145,34.82182820638021
368.0,23.797988891601562,0.2651214599609375,0.0705718994140625,0.0171661376953125,0.0934600830078125,27.14093526204427,42.057037353515625,28.545379638671875,18.693288167317707,19.225438435872395,0.042597452799479164,0.339508056640625,0.1354217529296875,0.06739298502604167,29.158274332682293,34.685770670572914
369.0,23.283640543619793,0.14050801595052084,0.13224283854166666,0.044504801432291664,0.003814697265625,36.19066874186198,34.282684326171875,25.295257568359375,23.397445678710938,22.637685139973957,0.17865498860677084,0.0025431315104166665,0.07184346516927083,0.042597452799479164,34.42192077636719,21.976470947265625
370.0,29.63574727376302,0.15004475911458334,0.17229715983072916,0.31280517578125,0.00762939453125,32.544453938802086,27.963002522786457,30.4718017578125,31.967798868815105,31.713485717773438,0.22443135579427084,0.016530354817708332,0.08900960286458333,0.24859110514322916,22.31915791829427,23.738861083984375
371.0,37.32617696126302,0.09028116861979167,0.2791086832682292,0.034968058268229164,0.23206075032552084,22.440592447916668,31.485875447591145,41.22797648111979,37.9486083984375,32.457987467447914,0.15576680501302084,0.018437703450520832,0.06993611653645833,0.041961669921875,19.5465087890625,30.234654744466145
372.0,29.954274495442707,0.14177958170572916,0.20154317220052084,0.0095367431640625,0.015894571940104168,24.11333719889323,38.65814208984375,36.74125671386719,21.529515584309895,20.19182840983073,0.044504801432291664,0.13860066731770834,0.0025431315104166665,0.024159749348958332,24.651209513346355,38.172403971354164
373.0,22.507349650065105,0.1983642578125,0.2536773681640625,0.10744730631510417,0.040690104166666664,29.834747314453125,40.53433736165365,24.996439615885418,20.281473795572918,20.018259684244793,0.4482269287109375,0.034332275390625,0.08646647135416667,0.012715657552083334,32.810211181640625,27.83966064453125
374.0,25.81024169921875,0.18437703450520834,0.064849853515625,0.041325887044270836,0.1964569091796875,33.91075134277344,27.956008911132812,28.06854248046875,27.52240498860677,25.933583577473957,0.1201629638671875,0.052134195963541664,0.1468658447265625,0.3083546956380208,27.161916097005207,21.495819091796875
375.0,34.63300069173177,0.2600351969401042,0.23015340169270834,0.06739298502604167,0.030517578125,27.18035380045573,28.467814127604168,35.60956319173177,37.99247741699219,35.37559509277344,0.308990478515625,0.005086263020833333,0.118255615234375,0.20917256673177084,19.70990498860677,26.143391927083332
376.0,35.46460469563802,0.041961669921875,0.07883707682291667,0.15894571940104166,0.008900960286458334,25.300343831380207,34.33036804199219,42.42579142252604,30.629475911458332,26.230494181315105,0.18946329752604166,0.08455912272135417,0.027338663736979168,0.09791056315104167,23.042678833007812,34.85425313313802
377.0,24.106343587239582,0.17484029134114584,0.24922688802083334,0.2683003743489583,0.21998087565104166,27.07672119140625,41.758219401041664,28.792063395182293,18.869400024414062,18.960316975911457,0.0400543212890625,0.018437703450520832,0.1316070556640625,0.0762939453125,28.896331787109375,35.067240397135414
378.0,22.672017415364582,0.060399373372395836,0.019073486328125,0.072479248046875,0.15958150227864584,33.498128255208336,33.910115559895836,26.11096700032552,23.458480834960938,22.04577128092448,0.046412150065104164,0.3147125244140625,0.087738037109375,0.11189778645833333,33.11793009440104,22.022247314453125
379.0,30.305862426757812,0.13669331868489584,0.476837158203125,0.008900960286458334,0.0438690185546875,31.80694580078125,28.43920389811198,30.221939086914062,31.90930684407552,31.600316365559895,0.0705718994140625,0.4355112711588542,0.2504984537760417,0.202178955078125,22.014617919921875,23.640950520833332
380.0,36.77495320638021,0.06421407063802083,0.0025431315104166665,0.12143452962239583,0.0025431315104166665,24.389266967773438,31.04082743326823,40.81853230794271,37.663777669270836,32.66016642252604,0.1773834228515625,0.17611185709635416,0.0667572021484375,0.19772847493489584,20.287195841471355,30.022939046223957
381.0,29.752095540364582,0.0247955322265625,0.11761983235677083,0.057220458984375,0.3096262613932292,24.445851643880207,38.8952891031901,36.8506113688151,21.89954121907552,19.922256469726562,0.2816518147786458,0.0400543212890625,0.057220458984375,0.0152587890625,24.545669555664062,37.92572021484375
382.0,22.205352783203125,0.2079010009765625,0.0152587890625,0.041961669921875,0.052769978841145836,33.34935506184896,40.988922119140625,25.231679280598957,20.353317260742188,19.878387451171875,0.2829233805338542,0.0247955322265625,0.022252400716145832,0.24922688802083334,34.69657897949219,28.570810953776043
383.0,25.94312032063802,0.035603841145833336,0.08837381998697917,0.0629425048828125,0.1049041748046875,34.79131062825521,28.593063354492188,27.962366739908855,27.466456095377605,25.971094767252605,0.17992655436197916,0.16466776529947916,0.2765655517578125,0.3299713134765625,28.413136800130207,21.722793579101562
384.0,31.960805257161457,0.030517578125,0.080108642578125,0.0171661376953125,0.2593994140625,27.772267659505207,28.319676717122395,35.62800089518229,37.90601094563802,34.411112467447914,0.02288818359375,0.12461344401041667,0.10744730631510417,0.019073486328125,19.75695292154948,26.076634724934895
385.0,35.28404235839844,0.13287862141927084,0.11698404947916667,0.1125335693359375,0.3070831298828125,26.378631591796875,34.45561726888021,42.34886169433594,30.900955200195312,26.32586161295573,0.2346038818359375,0.0438690185546875,0.055948893229166664,0.08519490559895833,23.480733235677082,34.66924031575521
