Time,S1_D1_Red,S2_D2_Red,S3_D3_Red,S4_D4_Red,S5_D5_Red,S6_D6_Red,S7_D7_Red,S8_D8_Red,S1_D1_Ir,S2_D2_Ir,S3_D3_Ir,S4_D4_Ir,S5_D5_Ir,S6_D6_Ir,S7_D7_Ir,S8_D8_Ir
0.0,0.0006357828776041666,0.0006357828776041666,0.152587890625,0.034968058268229164,0.050862630208333336,1135.7135772705078,1287.343978881836,1049.984614054362,657.1025848388672,0.0006357828776041666,0.0006357828776041666,0.0591278076171875,0.1049041748046875,0.0553131103515625,694.6551005045573,747.9330698649088
1.0,718.9801534016927,0.033060709635416664,0.10808308919270833,0.0095367431640625,0.037511189778645836,388.81810506184894,442.34339396158856,396.50535583496094,262.53318786621094,479.5347849527995,0.3592173258463542,0.004450480143229167,0.13097127278645834,0.06357828776041667,256.5924326578776,288.88193766276044
2.0,305.8179219563802,0.15576680501302084,0.3007253011067708,0.10045369466145833,0.2562204996744792,146.44813537597656,178.55008443196616,168.87474060058594,120.75360616048177,209.63541666666666,0.07565816243489583,0.3261566162109375,0.080108642578125,0.06421407063802083,92.29660034179688,120.24116516113281
3.0,140.5963897705078,0.064849853515625,0.102996826171875,0.039418538411458336,0.025431315104166668,62.89990743001302,87.10988362630208,91.38806660970052,63.0639394124349,93.85172526041667,0.019073486328125,0.3376007080078125,0.12715657552083334,0.11316935221354167,45.1812744140625,66.81251525878906
4.0,65.74694315592448,0.0667572021484375,0.0025431315104166665,0.12270609537760417,0.13033548990885416,44.59063212076823,63.98328145345052,51.59568786621094,31.525929768880207,43.58609517415365,0.080108642578125,0.0209808349609375,0.07120768229166667,0.036875406901041664,39.1686757405599,51.289876302083336
5.0,40.21644592285156,0.14623006184895834,0.1068115234375,0.2040863037109375,0.15385945638020834,43.14867655436198,47.297159830729164,35.105387369791664,28.289794921875,32.36707051595052,0.048955281575520836,0.091552734375,0.008265177408854166,0.2079010009765625,40.61190287272135,31.085968017578125
6.0,37.638346354166664,0.2797444661458333,0.3534952799479167,0.0400543212890625,0.018437703450520832,40.17829895019531,36.219278971354164,37.25115458170573,36.05779012044271,35.75706481933594,0.054677327473958336,0.11189778645833333,0.0031789143880208335,0.060399373372395836,27.903238932291668,28.50786844889323
7.0,44.820149739583336,0.0324249267578125,0.08455912272135417,0.14368693033854166,0.057220458984375,30.963897705078125,37.20664978027344,45.435587565104164,42.218526204427086,39.57557678222656,0.018437703450520832,0.027338663736979168,0.1068115234375,0.027974446614583332,24.077733357747395,33.215840657552086
8.0,37.68221537272135,0.044504801432291664,0.07947285970052083,0.008265177408854166,0.08519490559895833,30.408859252929688,44.50543721516927,44.83350118001302,28.047561645507812,25.699615478515625,0.054677327473958336,0.08455912272135417,0.0057220458984375,0.152587890625,28.18616231282552,42.299906412760414
9.0,28.382619222005207,0.0362396240234375,0.3083546956380208,0.12334187825520833,0.12906392415364584,36.78576151529948,47.047932942708336,30.83038330078125,23.544947306315105,23.593902587890625,0.15576680501302084,0.118255615234375,0.21235148111979166,0.11698404947916667,37.03498840332031,34.01947021484375
10.0,31.356175740559895,0.15767415364583334,0.020345052083333332,0.0031789143880208335,0.16085306803385416,41.58846537272135,36.19956970214844,31.6925048828125,29.726664225260418,28.95800272623698,0.08265177408854167,0.11889139811197917,0.011444091796875,0.1049041748046875,33.87641906738281,25.913238525390625
11.0,37.34525044759115,0.056584676106770836,0.06993611653645833,0.19772847493489584,0.056584676106770836,32.17252095540365,34.5465342203776,40.87511698404948,40.64496358235677,37.99120585123698,0.14813741048177084,0.19391377766927084,0.1430511474609375,0.18056233723958334,22.217432657877605,29.50604756673177
12.0,43.148040771484375,0.0934600830078125,0.05340576171875,0.1373291015625,0.09218851725260417,28.793970743815105,39.41917419433594,46.567281087239586,35.236358642578125,32.25262959798177,0.2702077229817708,0.0553131103515625,0.09282430013020833,0.08837381998697917,25.00470479329427,37.94415791829427
13.0,31.88006083170573,0.037511189778645836,0.049591064453125,0.15385945638020834,0.21680196126302084,32.75871276855469,47.686258951822914,34.29603576660156,21.570205688476562,23.65557352701823,0.0400543212890625,0.21616617838541666,0.133514404296875,0.23523966471354166,32.09050496419271,40.31817118326823
14.0,28.249104817708332,0.13287862141927084,0.019709269205729168,0.091552734375,0.057220458984375,38.370768229166664,40.08611043294271,29.95745340983073,25.383631388346355,25.399525960286457,0.07692972819010417,0.2702077229817708,0.18564860026041666,0.23142496744791666,36.89448038736979,26.363372802734375
15.0,32.29331970214844,0.15322367350260416,0.0820159912109375,0.2040863037109375,0.012715657552083334,37.97149658203125,32.36961364746094,35.12001037597656,34.78304545084635,32.75934855143229,0.0972747802734375,0.0031789143880208335,0.0457763671875,0.08900960286458333,26.613871256510418,26.269276936848957
16.0,42.52751668294271,0.110626220703125,0.029881795247395832,0.014623006184895834,0.2854665120442708,28.917948404947918,35.91346740722656,44.1595713297526,40.836334228515625,37.66759236653646,0.24159749348958334,0.08138020833333333,0.0553131103515625,0.010172526041666666,23.36438496907552,32.849629720052086
17.0,35.43217976888021,0.060399373372395836,0.1621246337890625,0.013987223307291666,0.2619425455729167,30.159632364908855,42.84032185872396,41.90508524576823,25.967915852864582,23.809432983398438,0.034332275390625,0.0209808349609375,0.2759297688802083,0.10236104329427083,28.096516927083332,41.7029062906901
18.0,27.641932169596355,0.036875406901041664,0.06103515625,0.19518534342447916,0.043233235677083336,37.106831868489586,46.703338623046875,29.469807942708332,22.85448710123698,23.042678833007812,0.4628499348958333,0.034332275390625,0.0025431315104166665,0.09028116861979167,37.106831868489586,33.24000040690104
19.0,29.815038045247395,0.1506805419921875,0.012079874674479166,0.118255615234375,0.2695719401041667,40.80327351888021,35.0335439046224,30.893325805664062,29.271443684895832,29.099146525065105,0.07120768229166667,0.21298726399739584,0.0896453857421875,0.0705718994140625,32.66143798828125,25.787353515625
20.0,37.226359049479164,0.058492024739583336,0.06612141927083333,0.14432271321614584,0.0133514404296875,32.40648905436198,34.145355224609375,40.019989013671875,40.42498270670573,37.85514831542969,0.21298726399739584,0.07756551106770833,0.16530354817708334,0.057220458984375,22.528966267903645,29.55182393391927
21.0,39.61054484049479,0.10426839192708333,0.036875406901041664,0.1678466796875,0.23714701334635416,29.633839925130207,39.211273193359375,47.78099060058594,34.91401672363281,29.109954833984375,0.033060709635416664,0.034332275390625,0.0152587890625,0.033696492513020836,25.569915771484375,37.89838155110677
22.0,28.94147237141927,0.1049041748046875,0.12906392415364584,0.23396809895833334,0.09791056315104167,32.19413757324219,47.09307352701823,34.21783447265625,22.084554036458332,22.03687032063802,0.10744730631510417,0.061670939127604164,0.07375081380208333,0.09282430013020833,32.14073181152344,39.58257039388021
23.0,27.66736348470052,0.14813741048177084,0.09854634602864583,0.1506805419921875,0.1850128173828125,37.91618347167969,39.9634043375651,29.526392618815105,25.590260823567707,25.18781026204427,0.060399373372395836,0.03814697265625,0.008265177408854166,0.1850128173828125,36.23072306315104,25.948842366536457
24.0,32.69131978352865,0.019709269205729168,0.13097127278645834,0.09282430013020833,0.045140584309895836,35.72909037272135,32.38487243652344,35.4773203531901,35.14734903971354,33.878326416015625,0.05340576171875,0.255584716796875,0.0476837158203125,0.1773834228515625,24.560928344726562,26.603062947591145
25.0,40.47838846842448,0.1621246337890625,0.023523966471354168,0.09663899739583333,0.052769978841145836,28.024673461914062,35.541534423828125,45.22514343261719,41.102091471354164,35.35779317220052,0.3922780354817708,0.062306722005208336,0.164031982421875,0.10935465494791667,22.776285807291668,32.89031982421875
26.0,33.96034240722656,0.09409586588541667,0.10045369466145833,0.080108642578125,0.031153361002604168,28.314590454101562,43.8232421875,41.91907246907552,25.100072224934895,22.586822509765625,0.052134195963541664,0.21425882975260416,0.10617574055989583,0.171661376953125,27.205785115559895,41.70926411946615
27.0,27.109146118164062,0.07883707682291667,0.13097127278645834,0.21107991536458334,0.301361083984375,36.34007771809896,45.77318827311198,28.755823771158855,22.825876871744793,23.036956787109375,0.0782012939453125,0.331878662109375,0.0286102294921875,0.064849853515625,36.693572998046875,32.10258483886719
28.0,30.516942342122395,0.0896453857421875,0.0247955322265625,0.022252400716145832,0.0171661376953125,38.58311971028646,33.986409505208336,30.077616373697918,29.08770243326823,29.653549194335938,0.202178955078125,0.0457763671875,0.16721089680989584,0.064849853515625,30.85645039876302,25.229771931966145
29.0,38.56849670410156,0.2568562825520833,0.2905527750651042,0.031789143880208336,0.05340576171875,29.78833516438802,34.268697102864586,39.80445861816406,40.87257385253906,37.83607482910156,0.179290771484375,0.1544952392578125,0.038782755533854164,0.0896453857421875,21.325429280598957,29.706319173177082
30.0,40.25141398111979,0.08900960286458333,0.07883707682291667,0.019073486328125,0.08837381998697917,27.191797892252605,38.9862060546875,46.306610107421875,33.253987630208336,29.050191243489582,0.2994537353515625,0.052134195963541664,0.1964569091796875,0.017801920572916668,24.839401245117188,38.32117716471354
31.0,27.974446614583332,0.08455912272135417,0.06357828776041667,0.038782755533854164,0.026702880859375,31.007766723632812,46.78789774576823,32.16361999511719,21.35149637858073,21.890004475911457,0.11952718098958333,0.025431315104166668,0.21616617838541666,0.14813741048177084,31.59777323404948,38.27730814615885
32.0,27.177174886067707,0.042597452799479164,0.011444091796875,0.22951761881510416,0.2816518147786458,38.11772664388021,39.48020935058594,29.352823893229168,26.136398315429688,25.478363037109375,0.17611185709635416,0.22761027018229166,0.1468658447265625,0.10363260904947917,36.0113779703776,25.85283915201823
33.0,33.48414103190104,0.110626220703125,0.15195210774739584,0.1239776611328125,0.1068115234375,34.10911560058594,32.37469991048177,35.4461669921875,35.49067179361979,33.65898132324219,0.06612141927083333,0.0012715657552083333,0.21616617838541666,0.037511189778645836,23.53986104329427,26.060740152994793
34.0,41.34051005045573,0.033060709635416664,0.09663899739583333,0.06993611653645833,0.12652079264322916,28.07299296061198,35.62609354654948,46.03703816731771,40.81153869628906,34.695943196614586,0.4863739013671875,0.0743865966796875,0.095367431640625,0.056584676106770836,22.836049397786457,33.40021769205729
35.0,32.54890441894531,0.2549489339192708,0.09409586588541667,0.041961669921875,0.055948893229166664,31.374613444010418,44.254302978515625,40.02825419108073,24.070103963216145,22.12969462076823,0.18056233723958334,0.15767415364583334,0.008265177408854166,0.14813741048177084,29.355367024739582,41.72197977701823
36.0,25.993982950846355,0.029246012369791668,0.18755594889322916,0.0019073486328125,0.13796488444010416,36.12645467122396,44.86401875813802,29.073715209960938,23.275375366210938,22.733052571614582,0.054677327473958336,0.057220458984375,0.00762939453125,0.20599365234375,36.68912251790365,30.626932779947918
37.0,29.755910237630207,0.020345052083333332,0.1621246337890625,0.017801920572916668,0.263214111328125,38.776397705078125,32.92274475097656,30.729293823242188,29.724756876627605,29.33057149251302,0.023523966471354168,0.06930033365885417,0.049591064453125,0.050226847330729164,29.574076334635418,25.407791137695312
38.0,38.6358896891276,0.0820159912109375,0.004450480143229167,0.19327799479166666,0.12524922688802084,30.562718709309895,34.69530741373698,40.77275594075521,41.376749674479164,37.07059224446615,0.07883707682291667,0.12524922688802084,0.06548563639322917,0.12524922688802084,21.851221720377605,30.042648315429688
39.0,39.09174601236979,0.050226847330729164,0.3070831298828125,0.0400543212890625,0.0896453857421875,29.019673665364582,40.0244394938151,45.94103495279948,31.974156697591145,27.83521016438802,0.0031789143880208335,0.031153361002604168,0.07565816243489583,0.047047932942708336,25.943756103515625,38.753509521484375
40.0,26.749928792317707,0.003814697265625,0.052769978841145836,0.0476837158203125,0.3801981608072917,33.26733907063802,46.794891357421875,32.435099283854164,22.192001342773438,21.38519287109375,0.006357828776041667,0.3102620442708333,0.052769978841145836,0.026702880859375,33.597310384114586,37.07122802734375
41.0,29.093424479166668,0.018437703450520832,0.095367431640625,0.034968058268229164,0.020345052083333332,40.6182607014974,37.12145487467448,27.931849161783855,25.588353474934895,27.074813842773438,0.057856241861979164,0.02288818359375,0.038782755533854164,0.16276041666666666,36.89257303873698,24.518330891927082
42.0,33.527374267578125,0.164031982421875,0.2689361572265625,0.17293294270833334,0.08646647135416667,34.6832275390625,31.36126200358073,35.62482198079427,36.40556335449219,34.540812174479164,0.021616617838541668,0.004450480143229167,0.24541219075520834,0.16657511393229166,22.988637288411457,26.207605997721355
43.0,41.06775919596354,0.16911824544270834,0.010808308919270834,0.064849853515625,0.010172526041666666,26.856740315755207,35.6909434000651,46.49162292480469,40.493011474609375,34.06969706217448,0.010172526041666666,0.16911824544270834,0.026702880859375,0.2504984537760417,22.675196329752605,33.711751302083336
44.0,33.9667002360026,0.040690104166666664,0.1544952392578125,0.1125335693359375,0.11698404947916667,27.754465738932293,44.178009033203125,37.434895833333336,22.18182881673177,22.603352864583332,0.13796488444010416,0.16848246256510416,0.09028116861979167,0.0782012939453125,27.370452880859375,40.354410807291664
45.0,26.5655517578125,0.1125335693359375,0.3871917724609375,0.0006357828776041666,0.024159749348958332,34.97886657714844,42.91407267252604,28.561909993489582,23.64031473795573,22.581736246744793,0.14495849609375,0.0972747802734375,0.09282430013020833,0.16276041666666666,36.36995951334635,29.43738301595052
46.0,30.000050862630207,0.15958150227864584,0.20853678385416666,0.08519490559895833,0.07883707682291667,39.455413818359375,32.31239318847656,31.311670939127605,30.438741048177082,30.00322977701823,0.0457763671875,0.029881795247395832,0.0762939453125,0.0171661376953125,29.815673828125,25.178273518880207
47.0,38.098653157552086,0.03814697265625,0.07502237955729167,0.049591064453125,0.1430511474609375,28.84674072265625,34.17778015136719,41.19745890299479,41.9470469156901,37.21427917480469,0.06802876790364583,0.11189778645833333,0.054677327473958336,0.20472208658854166,21.769205729166668,30.738194783528645
48.0,38.33198547363281,0.03814697265625,0.0934600830078125,0.054041544596354164,0.023523966471354168,28.107961018880207,40.17448425292969,44.54994201660156,30.47625223795573,27.24011739095052,0.16276041666666666,0.08646647135416667,0.20917256673177084,0.2530415852864583,25.272369384765625,38.82535298665365
49.0,28.811136881510418,0.050226847330729164,0.3916422526041667,0.054041544596354164,0.1850128173828125,32.86298116048177,46.96083068847656,29.676437377929688,20.810445149739582,22.413889567057293,0.019709269205729168,0.11189778645833333,0.16085306803385416,0.0591278076171875,33.31565856933594,36.75270080566406
50.0,27.704238891601562,0.052769978841145836,0.029246012369791668,0.17865498860677084,0.060399373372395836,40.1159922281901,36.83344523111979,29.393513997395832,26.30170186360677,25.671005249023438,0.0152587890625,0.042597452799479164,0.06103515625,0.12906392415364584,35.79839070638021,24.656931559244793
51.0,33.4326426188151,0.09981791178385417,0.07502237955729167,0.12143452962239583,0.10744730631510417,33.946990966796875,31.7230224609375,35.61274210611979,37.068684895833336,34.534454345703125,0.11889139811197917,0.3191630045572917,0.2530415852864583,0.08138020833333333,22.860209147135418,26.821136474609375
52.0,40.32071431477865,0.12969970703125,0.039418538411458336,0.08392333984375,0.125885009765625,28.837203979492188,35.93762715657552,46.50052388509115,39.388020833333336,33.161163330078125,0.1544952392578125,0.08328755696614583,0.033696492513020836,0.050862630208333336,23.657480875651043,34.5160166422526
53.0,31.46807352701823,0.12461344401041667,0.1735687255859375,0.0438690185546875,0.019073486328125,29.352188110351562,44.826507568359375,38.03126017252604,22.253036499023438,21.439234415690105,0.057220458984375,0.461578369140625,0.0743865966796875,0.10808308919270833,28.902689615885418,40.8477783203125
54.0,26.58526102701823,0.278472900390625,0.0972747802734375,0.22951761881510416,0.2231597900390625,35.60320536295573,42.35013326009115,29.500961303710938,23.634592692057293,22.520701090494793,0.035603841145833336,0.091552734375,0.07120768229166667,0.08392333984375,36.49330139160156,28.196970621744793
55.0,29.60650126139323,0.21870930989583334,0.09091695149739583,0.02288818359375,0.24159749348958334,38.571675618489586,31.601587931315105,32.831827799479164,31.691869099934895,29.867172241210938,0.1068115234375,0.15131632486979166,0.19582112630208334,0.046412150065104164,28.730392456054688,24.66901143391927
56.0,40.026346842447914,0.025431315104166668,0.008265177408854166,0.3306070963541667,0.10236104329427083,28.436024983723957,33.47969055175781,40.76449076334635,41.263580322265625,37.579854329427086,0.278472900390625,0.016530354817708332,0.0286102294921875,0.0209808349609375,21.753946940104168,30.219395955403645
57.0,37.357330322265625,0.13287862141927084,0.23905436197916666,0.0553131103515625,0.4793802897135417,26.169459025065105,40.12425740559896,44.81633504231771,29.669443766276043,26.114145914713543,0.10363260904947917,0.08265177408854167,0.1506805419921875,0.064849853515625,24.558385213216145,38.98048400878906
58.0,27.548472086588543,0.0324249267578125,0.048319498697916664,0.09600321451822917,0.045140584309895836,33.37287902832031,46.056111653645836,29.83538309733073,21.436055501302082,22.047678629557293,0.19327799479166666,0.0514984130859375,0.0514984130859375,0.060399373372395836,34.332275390625,35.776774088541664
59.0,27.321497599283855,0.0514984130859375,0.031153361002604168,0.0514984130859375,0.08455912272135417,38.51636250813802,36.06732686360677,29.84937032063802,26.840845743815105,25.801976521809895,0.274658203125,0.0247955322265625,0.013987223307291666,0.17229715983072916,34.53636169433594,24.681727091471355
60.0,34.76715087890625,0.18056233723958334,0.133514404296875,0.1506805419921875,0.064849853515625,32.367706298828125,31.22711181640625,36.80610656738281,38.22898864746094,35.48431396484375,0.091552734375,0.2689361572265625,0.07184346516927083,0.08138020833333333,21.872202555338543,26.650110880533855
61.0,42.673746744791664,0.087738037109375,0.048319498697916664,0.13796488444010416,0.010808308919270834,26.45428975423177,36.2542470296224,44.73876953125,36.763509114583336,33.999125162760414,0.0858306884765625,0.11189778645833333,0.2460479736328125,0.0762939453125,22.571563720703125,34.5617930094401
62.0,31.202952067057293,0.0972747802734375,0.11952718098958333,0.1506805419921875,0.209808349609375,31.016031901041668,45.64539591471354,36.12454732259115,21.327972412109375,21.240234375,0.3134409586588542,0.3515879313151042,0.15385945638020834,0.03814697265625,30.0445556640625,40.669759114583336
63.0,27.863820393880207,0.031153361002604168,0.0324249267578125,0.3248850504557292,0.1468658447265625,36.4373524983724,42.4652099609375,27.277628580729168,22.755940755208332,23.98681640625,0.07565816243489583,0.141143798828125,0.0972747802734375,0.10617574055989583,36.87858581542969,28.20905049641927
64.0,30.599594116210938,0.1068115234375,0.08646647135416667,0.20917256673177084,0.20535786946614584,38.47694396972656,31.714121500651043,32.67987569173177,31.937281290690105,30.74200948079427,0.0362396240234375,0.0006357828776041666,0.16848246256510416,0.4469553629557292,27.9541015625,25.388081868489582
65.0,39.1228993733724,0.09282430013020833,0.06930033365885417,0.20472208658854166,0.11189778645833333,29.662450154622395,33.96924336751302,42.835235595703125,41.77411397298177,36.855061848958336,0.4221598307291667,0.0591278076171875,0.0591278076171875,0.025431315104166668,22.815704345703125,31.39940897623698
66.0,38.166046142578125,0.033696492513020836,0.0133514404296875,0.0286102294921875,0.17038981119791666,28.288523356119793,41.19682312011719,43.355305989583336,28.045018513997395,25.896708170572918,0.00762939453125,0.041961669921875,0.11698404947916667,0.2530415852864583,26.048024495442707,40.10009765625
67.0,26.720046997070312,0.027338663736979168,0.17293294270833334,0.040690104166666664,0.18310546875,35.05071004231771,45.83549499511719,28.53711446126302,21.53333028157552,21.518707275390625,0.3515879313151042,0.072479248046875,0.07692972819010417,0.1697540283203125,35.2331797281901,34.42955017089844
68.0,28.207143147786457,0.2384185791015625,0.03814697265625,0.010808308919270834,0.3407796223958333,39.96404012044271,35.70111592610677,30.35736083984375,28.862635294596355,26.559193929036457,0.20472208658854166,0.020345052083333332,0.17611185709635416,0.0438690185546875,34.10021464029948,24.75293477376302
69.0,35.30693054199219,0.095367431640625,0.2689361572265625,0.008265177408854166,0.0705718994140625,33.870697021484375,31.823476155598957,37.08648681640625,38.77830505371094,35.563151041666664,0.0025431315104166665,0.021616617838541668,0.07883707682291667,0.1659393310546875,22.377649943033855,27.252197265625
70.0,40.4198964436849,0.110626220703125,0.16021728515625,0.031789143880208336,0.11507670084635417,27.216593424479168,36.35215759277344,46.52595520019531,36.51110331217448,31.755447387695312,0.22633870442708334,0.014623006184895834,0.11698404947916667,0.15703837076822916,23.478190104166668,35.03735860188802
71.0,30.958811442057293,0.056584676106770836,0.1010894775390625,0.1659393310546875,0.0591278076171875,30.892690022786457,45.466105143229164,34.6368153889974,20.802815755208332,22.055943806966145,0.13669331868489584,0.10236104329427083,0.194549560546875,0.0171661376953125,30.544281005859375,40.41163126627604
72.0,24.613062540690105,0.019073486328125,0.09791056315104167,0.12652079264322916,0.13605753580729166,38.33325703938802,41.81671142578125,28.746287027994793,24.11333719889323,23.071924845377605,0.23015340169270834,0.058492024739583336,0.11380513509114583,0.12842814127604166,37.43108113606771,27.44738260904948
73.0,30.028661092122395,0.14241536458333334,0.17484029134114584,0.10363260904947917,0.018437703450520832,36.77813212076823,31.630198160807293,33.46888224283854,33.01811218261719,30.730565388997395,0.11889139811197917,0.0457763671875,0.15958150227864584,0.14177958170572916,26.163736979166668,25.190989176432293
74.0,38.72489929199219,0.027974446614583332,0.08392333984375,0.012079874674479166,0.07883707682291667,28.731664021809895,33.824920654296875,43.599446614583336,41.568756103515625,35.92681884765625,0.20599365234375,0.3000895182291667,0.0025431315104166665,0.052134195963541664,22.622426350911457,30.745824178059895
75.0,37.0794932047526,0.11952718098958333,0.06612141927083333,0.035603841145833336,0.06739298502604167,28.233846028645832,40.90054829915365,41.87774658203125,26.643753051757812,25.060653686523438,0.09600321451822917,0.07502237955729167,0.06993611653645833,0.14940897623697916,26.709874471028645,40.22789001464844
76.0,26.517232259114582,0.24096171061197916,0.07883707682291667,0.14368693033854166,0.027338663736979168,34.06715393066406,45.719146728515625,28.55237325032552,22.187550862630207,22.029876708984375,0.09409586588541667,0.046412150065104164,0.3121693929036458,0.12524922688802084,34.983317057291664,33.54581197102865
77.0,27.979532877604168,0.1678466796875,0.11889139811197917,0.027974446614583332,0.2511342366536458,40.0536855061849,34.23245747884115,30.654271443684895,28.247833251953125,26.948293050130207,0.14177958170572916,0.057856241861979164,0.05340576171875,0.0629425048828125,33.53118896484375,24.047215779622395
78.0,36.50093078613281,0.046412150065104164,0.22252400716145834,0.12270609537760417,0.133514404296875,33.047993977864586,32.41666158040365,36.151885986328125,38.01536560058594,36.81246439615885,0.00762939453125,0.2549489339192708,0.2593994140625,0.2714792887369792,22.630055745442707,28.031667073567707
79.0,40.496826171875,0.091552734375,0.1163482666015625,0.041325887044270836,0.15131632486979166,27.208964029947918,37.75978088378906,45.13231913248698,35.0182851155599,31.167984008789062,0.012079874674479166,0.047047932942708336,0.010172526041666666,0.10553995768229167,23.955027262369793,36.17095947265625
80.0,29.16399637858073,0.17102559407552084,0.2040863037109375,0.054677327473958336,0.0133514404296875,32.09749857584635,46.01160685221354,34.26933288574219,20.77802022298177,21.384557088216145,0.10935465494791667,0.3019968668619792,0.012715657552083334,0.16848246256510416,31.49731953938802,40.25141398111979
81.0,24.845123291015625,0.4952748616536458,0.006357828776041667,0.0514984130859375,0.0019073486328125,37.09729512532552,40.70917765299479,28.86962890625,24.349212646484375,23.010889689127605,0.22761027018229166,0.08138020833333333,0.15703837076822916,0.044504801432291664,36.554972330729164,26.0162353515625
82.0,31.522750854492188,0.033060709635416664,0.156402587890625,0.12969970703125,0.091552734375,35.52818298339844,32.85090128580729,34.29857889811198,33.749898274739586,31.803131103515625,0.035603841145833336,0.055948893229166664,0.006357828776041667,0.012715657552083334,25.254567464192707,26.430130004882812
83.0,39.45604960123698,0.2587636311848958,0.07565816243489583,0.024159749348958332,0.1220703125,25.58135986328125,34.50457255045573,44.31470235188802,41.05250040690104,35.92554728190104,0.1392364501953125,0.0025431315104166665,0.16848246256510416,0.12524922688802084,21.21289571126302,31.691233317057293
84.0,34.49821472167969,0.031789143880208336,0.0012715657552083333,0.152587890625,0.10553995768229167,28.058369954427082,41.74677530924479,42.69854227701823,26.526133219401043,23.155848185221355,0.031789143880208336,0.10935465494791667,0.048955281575520836,0.041325887044270836,26.76073710123698,40.74796040852865
85.0,25.690714518229168,0.027974446614583332,0.008265177408854166,0.07311503092447917,0.2613067626953125,33.176422119140625,44.954935709635414,29.396692911783855,22.916793823242188,21.963119506835938,0.057220458984375,0.0247955322265625,0.0457763671875,0.003814697265625,34.8199208577474,32.82356262207031
86.0,27.866363525390625,0.24731953938802084,0.07375081380208333,0.3229777018229167,0.22824605305989584,37.42027282714844,33.77532958984375,31.359354654947918,29.33502197265625,27.245203653971355,0.10363260904947917,0.0286102294921875,0.09600321451822917,0.062306722005208336,31.479517618815105,24.444580078125
87.0,35.62164306640625,0.0133514404296875,0.029881795247395832,0.0057220458984375,0.15703837076822916,30.00958760579427,31.492233276367188,38.49156697591146,39.37848409016927,36.936442057291664,0.040690104166666664,0.031153361002604168,0.010808308919270834,0.12334187825520833,20.557403564453125,27.664820353190105
88.0,39.41027323404948,0.19709269205729166,0.3000895182291667,0.11126200358072917,0.316619873046875,28.287251790364582,37.54742940266927,45.88190714518229,34.47659810384115,29.71204121907552,0.21425882975260416,0.010172526041666666,0.24731953938802084,0.0133514404296875,24.499893188476562,36.577860514322914
89.0,27.456283569335938,0.07756551106770833,0.10236104329427083,0.07311503092447917,0.0012715657552083333,32.1051279703776,45.75347900390625,34.11674499511719,21.546681722005207,20.79010009765625,0.026067097981770832,0.054041544596354164,0.16021728515625,0.12334187825520833,31.386057535807293,39.12671407063802
90.0,28.377532958984375,0.08392333984375,0.07311503092447917,0.171661376953125,0.19391377766927084,39.40582275390625,39.46050008138021,27.238845825195312,24.072011311848957,25.311787923177082,0.0705718994140625,0.07502237955729167,0.15322367350260416,0.15703837076822916,37.258148193359375,25.30670166015625
91.0,31.748453776041668,0.3007253011067708,0.11316935221354167,0.18628438313802084,0.09473164876302083,37.31473286946615,31.85272216796875,33.618927001953125,33.80711873372396,32.24372863769531,0.040690104166666664,0.09091695149739583,0.054677327473958336,0.20281473795572916,25.92023213704427,26.531219482421875
92.0,39.81781005859375,0.072479248046875,0.18437703450520834,0.0972747802734375,0.1354217529296875,28.936386108398438,35.143534342447914,45.00897725423177,40.972391764322914,35.49385070800781,0.2040863037109375,0.7088979085286459,0.16021728515625,0.3439585367838542,23.291269938151043,32.346089680989586
93.0,33.80775451660156,0.16657511393229166,0.1125335693359375,0.003814697265625,0.19582112630208334,28.719584147135418,42.18737284342448,41.38374328613281,25.255203247070312,22.647857666015625,0.06612141927083333,0.09028116861979167,0.015894571940104168,0.2911885579427083,27.31768290201823,41.16121927897135
94.0,26.322682698567707,0.0012715657552083333,0.2543131510416667,0.0820159912109375,0.043233235677083336,34.63554382324219,44.826507568359375,28.113683064778645,22.577285766601562,21.979014078776043,0.004450480143229167,0.041325887044270836,0.07947285970052083,0.0362396240234375,35.31710306803385,31.787872314453125
95.0,28.59942118326823,0.0476837158203125,0.2288818359375,0.10999043782552083,0.042597452799479164,37.29375203450521,32.93037414550781,31.668345133463543,29.706954956054688,27.952194213867188,0.056584676106770836,0.12524922688802084,0.07947285970052083,0.15576680501302084,30.320485432942707,24.312337239583332
96.0,35.95797220865885,0.21107991536458334,0.029881795247395832,0.091552734375,0.0762939453125,30.646642049153645,31.539281209309895,39.37657674153646,40.089925130208336,36.9103749593099,0.1354217529296875,0.025431315104166668,0.18628438313802084,0.08455912272135417,21.531422932942707,28.08380126953125
97.0,38.91881306966146,0.17484029134114584,0.061670939127604164,0.08900960286458333,0.1220703125,26.865641276041668,38.050333658854164,45.53985595703125,33.30357869466146,28.415679931640625,0.06612141927083333,0.038782755533854164,0.006357828776041667,0.011444091796875,23.794809977213543,37.3236338297526
98.0,27.029673258463543,0.09663899739583333,0.1010894775390625,0.22061665852864584,0.2797444661458333,32.597859700520836,46.81205749511719,32.64617919921875,20.90899149576823,20.858128865559895,0.11507670084635417,0.05340576171875,0.048955281575520836,0.08519490559895833,32.291412353515625,38.41972351074219
99.0,26.42377217610677,0.052134195963541664,0.0006357828776041666,0.033696492513020836,0.1316070556640625,38.04206848144531,39.04024759928385,28.258005777994793,25.16492207845052,24.220784505208332,0.005086263020833333,0.0031789143880208335,0.06802876790364583,0.12461344401041667,35.830179850260414,25.604248046875
100.0,33.08677673339844,0.0247955322265625,0.044504801432291664,0.0553131103515625,0.039418538411458336,37.455240885416664,32.66588846842448,33.22029113769531,33.948262532552086,34.0124766031901,0.05340576171875,0.09981791178385417,0.1392364501953125,0.17865498860677084,25.853474934895832,26.425679524739582
101.0,40.99591573079427,0.0006357828776041666,0.16848246256510416,0.046412150065104164,0.06866455078125,28.057098388671875,35.3387196858724,44.64022318522135,39.981842041015625,34.983317057291664,0.10808308919270833,0.0006357828776041666,0.09473164876302083,0.0006357828776041666,22.88055419921875,33.20630391438802
102.0,35.494486490885414,0.016530354817708332,0.12715657552083334,0.118255615234375,0.07692972819010417,29.963175455729168,42.47156778971354,38.599650065104164,23.133595784505207,23.684183756510418,0.07311503092447917,0.061670939127604164,0.012079874674479166,0.10999043782552083,28.00432840983073,40.379842122395836
103.0,26.392618815104168,0.025431315104166668,0.041961669921875,0.08646647135416667,0.24731953938802084,34.31065877278646,44.15003458658854,28.116226196289062,22.79345194498698,22.96002705891927,0.030517578125,0.12079874674479167,0.064849853515625,0.09918212890625,35.9808603922526,30.714035034179688
104.0,29.328664143880207,0.005086263020833333,0.0031789143880208335,0.164031982421875,0.17865498860677084,39.532979329427086,31.835556030273438,30.893325805664062,29.549280802408855,28.828938802083332,0.13033548990885416,0.08646647135416667,0.038782755533854164,0.0438690185546875,30.907948811848957,24.72241719563802
105.0,37.31981913248698,0.13415018717447916,0.18246968587239584,0.07375081380208333,0.07565816243489583,30.138015747070312,32.00085957845052,39.46558634440104,40.80645243326823,37.22445170084635,0.025431315104166668,0.14559427897135416,0.020345052083333332,0.11189778645833333,21.748860677083332,29.06354268391927
106.0,38.360595703125,0.039418538411458336,0.1506805419921875,0.286102294921875,0.1583099365234375,26.738484700520832,38.373311360677086,45.85901896158854,32.38550821940104,27.376810709635418,0.10808308919270833,0.019073486328125,0.17801920572916666,0.087738037109375,24.22650655110677,37.700653076171875
107.0,26.086807250976562,0.3108978271484375,0.03814697265625,0.14559427897135416,0.0209808349609375,31.670252482096355,46.192169189453125,32.581329345703125,21.686553955078125,20.7061767578125,0.0057220458984375,0.2536773681640625,0.06357828776041667,0.15004475911458334,31.920750935872395,37.432352701822914
108.0,25.91387430826823,0.08900960286458333,0.08138020833333333,0.0095367431640625,0.011444091796875,38.42798868815104,37.33253479003906,29.790242513020832,26.213328043619793,24.272918701171875,0.054041544596354164,0.17229715983072916,0.19391377766927084,0.11189778645833333,36.015828450520836,24.680455525716145
109.0,31.775156656901043,0.1220703125,0.16911824544270834,0.052769978841145836,0.16085306803385416,33.215840657552086,31.005859375,35.60002644856771,35.671234130859375,33.50512186686198,0.041961669921875,0.16466776529947916,0.3687540690104167,0.17865498860677084,22.576014200846355,25.7568359375
110.0,42.06975301106771,0.035603841145833336,0.1239776611328125,0.133514404296875,0.14559427897135416,25.754928588867188,36.106109619140625,43.584187825520836,39.35941060384115,35.442352294921875,0.08392333984375,0.2079010009765625,0.4107157389322917,0.031153361002604168,21.979014078776043,34.06588236490885
111.0,32.75616963704427,0.17484029134114584,0.152587890625,0.0743865966796875,0.377655029296875,27.294158935546875,43.591817220052086,38.632710774739586,22.856394449869793,22.064844767252605,0.152587890625,0.09218851725260417,0.213623046875,0.06930033365885417,26.786168416341145,40.43896993001302
112.0,25.345484415690105,0.45013427734375,0.0012715657552083333,0.1049041748046875,0.20154317220052084,34.47786966959635,43.86456807454427,28.455098470052082,22.960662841796875,22.319793701171875,0.043233235677083336,0.3611246744791667,0.08455912272135417,0.19709269205729166,36.534627278645836,30.310312906901043
113.0,29.394149780273438,0.08138020833333333,0.08328755696614583,0.2797444661458333,0.2079010009765625,39.15278116861979,32.0892333984375,31.640370686848957,30.401229858398438,29.40686543782552,0.1277923583984375,0.041325887044270836,0.040690104166666664,0.0591278076171875,30.00322977701823,24.8260498046875
114.0,37.532806396484375,0.06421407063802083,0.031789143880208336,0.09663899739583333,0.2676645914713542,28.345743815104168,32.886505126953125,40.41417439778646,41.124979654947914,36.37123107910156,0.06421407063802083,0.2593994140625,0.15703837076822916,0.034332275390625,20.752588907877605,29.1748046875
115.0,37.9791259765625,0.07565816243489583,0.015894571940104168,0.018437703450520832,0.18628438313802084,30.1055908203125,39.92525736490885,44.92950439453125,30.716578165690105,27.266184488932293,0.061670939127604164,0.19200642903645834,0.19900004069010416,0.041325887044270836,26.519139607747395,38.464864095052086
116.0,26.106516520182293,0.3083546956380208,0.14050801595052084,0.0972747802734375,0.0476837158203125,32.5921376546224,46.20361328125,30.967076619466145,21.345138549804688,20.969390869140625,0.1678466796875,0.0629425048828125,0.23015340169270834,0.11444091796875,33.20439656575521,36.42972310384115
117.0,26.060740152994793,0.041325887044270836,0.022252400716145832,0.263214111328125,0.09981791178385417,40.16939798990885,37.200927734375,29.328028361002605,26.369094848632812,24.858474731445312,0.014623006184895834,0.044504801432291664,0.0782012939453125,0.18310546875,36.651611328125,24.847666422526043
118.0,35.31455993652344,0.07311503092447917,0.024159749348958332,0.026067097981770832,0.048955281575520836,33.215840657552086,30.816396077473957,33.54644775390625,35.2776845296224,35.4925791422526,0.18819173177083334,0.046412150065104164,0.026702880859375,0.0667572021484375,22.26575215657552,25.73839823404948
119.0,40.55213928222656,0.07311503092447917,0.037511189778645836,0.006993611653645833,0.11889139811197917,27.580897013346355,35.79139709472656,45.5633799235026,39.22335306803385,33.60303243001302,0.1506805419921875,0.054041544596354164,0.0476837158203125,0.0553131103515625,22.918701171875,33.88150533040365
120.0,31.167348225911457,0.017801920572916668,0.11571248372395833,0.2460479736328125,0.11761983235677083,31.251271565755207,44.03241475423177,37.738800048828125,22.065480550130207,21.413167317708332,0.039418538411458336,0.1125335693359375,0.09282430013020833,0.14623006184895834,29.712677001953125,40.44151306152344
121.0,26.13385518391927,0.040690104166666664,0.1316070556640625,0.012715657552083334,0.064849853515625,34.83772277832031,43.17410786946615,27.81995137532552,23.030598958333332,23.241678873697918,0.017801920572916668,0.010808308919270834,0.110626220703125,0.010172526041666666,36.76033020019531,28.98406982421875
122.0,29.6783447265625,0.041325887044270836,0.015894571940104168,0.0247955322265625,0.08519490559895833,38.29256693522135,31.007130940755207,32.20494588216146,31.34600321451823,29.651641845703125,0.052134195963541664,0.0591278076171875,0.1163482666015625,0.0400543212890625,28.83593241373698,24.424235026041668
123.0,37.41772969563802,0.031153361002604168,0.15767415364583334,0.0171661376953125,0.0006357828776041666,27.533849080403645,32.712300618489586,40.94250996907552,41.82116190592448,36.48249308268229,0.24731953938802084,0.1068115234375,0.14368693033854166,0.13415018717447916,20.54278055826823,29.65100606282552
124.0,37.54234313964844,0.1373291015625,0.08710225423177083,0.186920166015625,0.11126200358072917,28.78570556640625,39.59465026855469,43.56702168782552,28.882980346679688,26.100794474283855,0.11189778645833333,0.0858306884765625,0.179290771484375,0.15195210774739584,26.131312052408855,38.57612609863281
125.0,25.81342061360677,0.15385945638020834,0.008900960286458334,0.006357828776041667,0.13033548990885416,34.357706705729164,46.208699544270836,29.584248860677082,21.74059549967448,21.026611328125,0.1125335693359375,0.0667572021484375,0.1544952392578125,0.019709269205729168,34.4390869140625,35.86769104003906
126.0,26.77599589029948,0.263214111328125,0.029246012369791668,0.1087188720703125,0.23523966471354166,40.19482930501302,36.56133015950521,29.449462890625,26.94257100423177,25.81469217936198,0.23969014485677084,0.055948893229166664,0.10172526041666667,0.2040863037109375,35.308837890625,24.770736694335938
127.0,33.4771474202474,0.202178955078125,0.10426839192708333,0.4189809163411458,0.2765655517578125,32.96089172363281,32.030741373697914,36.577860514322914,37.97594706217448,34.68767801920573,0.0972747802734375,0.0012715657552083333,0.13097127278645834,0.10617574055989583,21.8963623046875,26.604970296223957
128.0,39.96149698893229,0.10236104329427083,0.033060709635416664,0.07692972819010417,0.1506805419921875,25.734583536783855,35.626729329427086,46.117146809895836,38.22962443033854,33.02701314290365,0.011444091796875,0.0972747802734375,0.09282430013020833,0.02288818359375,22.398630777994793,34.015655517578125
129.0,31.457901000976562,0.18755594889322916,0.003814697265625,0.011444091796875,0.046412150065104164,30.184427897135418,44.31851704915365,36.09911600748698,21.237691243489582,21.3165283203125,0.20599365234375,0.0057220458984375,0.22379557291666666,0.10999043782552083,29.448191324869793,40.081024169921875
130.0,25.877634684244793,0.00762939453125,0.5251566569010416,0.07692972819010417,0.08837381998697917,35.82127888997396,42.041778564453125,27.69025166829427,22.786458333333332,23.138682047526043,0.12334187825520833,0.15767415364583334,0.1621246337890625,0.038782755533854164,37.01082865397135,27.997970581054688
131.0,30.727386474609375,0.044504801432291664,0.08646647135416667,0.029881795247395832,0.09981791178385417,39.11463419596354,31.212488810221355,30.631383260091145,30.977249145507812,30.389785766601562,0.16848246256510416,0.1773834228515625,0.12842814127604166,0.17992655436197916,28.73547871907552,25.00470479329427
132.0,38.38475545247396,0.08455912272135417,0.15385945638020834,0.2905527750651042,0.12461344401041667,29.666900634765625,32.87823994954427,41.28837585449219,41.3818359375,36.42717997233073,0.0514984130859375,0.031789143880208336,0.0057220458984375,0.4800160725911458,22.429784138997395,30.24737040201823
133.0,36.304473876953125,0.1373291015625,0.1125335693359375,0.0762939453125,0.09091695149739583,28.29742431640625,40.1763916015625,44.667561848958336,28.944015502929688,24.663289388020832,0.012079874674479166,0.19963582356770834,0.034332275390625,0.004450480143229167,25.891621907552082,39.40709431966146
134.0,25.231679280598957,0.040690104166666664,0.20662943522135416,0.012079874674479166,0.2816518147786458,33.02447001139323,45.734405517578125,28.93511454264323,21.12261454264323,20.434061686197918,0.07756551106770833,0.004450480143229167,0.029246012369791668,0.13987223307291666,34.42255655924479,35.250345865885414
135.0,26.643753051757812,0.00762939453125,0.027338663736979168,0.061670939127604164,0.10999043782552083,40.12235005696615,35.7812245686849,29.421488444010418,26.78680419921875,25.62713623046875,0.1010894775390625,0.12524922688802084,0.110626220703125,0.031153361002604168,34.7436269124349,24.593353271484375
136.0,33.90947977701823,0.11380513509114583,0.21616617838541666,0.031153361002604168,0.3458658854166667,32.95707702636719,31.564712524414062,37.53980000813802,38.576761881510414,35.3240966796875,0.1468658447265625,0.1678466796875,0.0247955322265625,0.13669331868489584,22.240956624348957,26.819864908854168
137.0,40.27748107910156,0.054677327473958336,0.2683003743489583,0.2695719401041667,0.1125335693359375,27.091344197591145,35.52563985188802,46.92649841308594,37.846883138020836,31.698862711588543,0.040690104166666664,0.07883707682291667,0.0006357828776041666,0.2511342366536458,23.14440409342448,34.2260996500651
138.0,30.77379862467448,0.058492024739583336,0.16848246256510416,0.020345052083333332,0.24859110514322916,30.214945475260418,43.711344401041664,35.6438954671224,21.302541097005207,21.489461263020832,0.06802876790364583,0.06739298502604167,0.17229715983072916,0.07120768229166667,30.051549275716145,39.90872701009115
139.0,26.752471923828125,0.14940897623697916,0.2918243408203125,0.0667572021484375,0.15385945638020834,36.54670715332031,41.1993662516276,28.059641520182293,23.507436116536457,23.82342020670573,0.06357828776041667,0.17547607421875,0.171661376953125,0.362396240234375,37.07440694173177,27.059555053710938
140.0,30.380884806315105,0.1506805419921875,0.12715657552083334,0.0006357828776041666,0.029246012369791668,38.4362538655599,30.84119160970052,32.89922078450521,32.5323740641276,30.457814534505207,0.008900960286458334,0.2549489339192708,0.08710225423177083,0.14495849609375,27.208328247070312,24.582544962565105
141.0,38.53416442871094,0.019709269205729168,0.1201629638671875,0.14495849609375,0.13224283854166666,28.32476298014323,33.50194295247396,43.08319091796875,41.96993509928385,35.869598388671875,0.1220703125,0.010808308919270834,0.039418538411458336,0.08265177408854167,21.986643473307293,30.660629272460938
142.0,35.962422688802086,0.057856241861979164,0.06993611653645833,0.08455912272135417,0.02288818359375,27.756373087565105,40.85667928059896,43.90271504720052,27.98144022623698,24.25829569498698,0.15195210774739584,0.20090738932291666,0.09282430013020833,0.152587890625,26.086807250976562,39.89219665527344
143.0,24.943033854166668,0.034968058268229164,0.0012715657552083333,0.11507670084635417,0.13605753580729166,33.6310068766276,45.359293619791664,28.558731079101562,21.73296610514323,20.200729370117188,0.1697540283203125,0.1392364501953125,0.057220458984375,0.012715657552083334,34.947713216145836,33.71111551920573
144.0,26.544570922851562,0.2117156982421875,0.16021728515625,0.15894571940104166,0.18819173177083334,38.562774658203125,36.502838134765625,29.660542805989582,27.323404947916668,26.255289713541668,0.08074442545572917,0.052134195963541664,0.141143798828125,0.2498626708984375,32.72183736165365,25.295257568359375
145.0,34.26678975423177,0.09409586588541667,0.052769978841145836,0.087738037109375,0.040690104166666664,31.056722005208332,32.13946024576823,38.70519002278646,39.39247131347656,35.617828369140625,0.0019073486328125,0.12652079264322916,0.19327799479166666,0.011444091796875,20.870208740234375,27.699788411458332
146.0,41.507720947265625,0.15767415364583334,0.013987223307291666,0.2759297688802083,0.027338663736979168,26.02068583170573,35.5688730875651,45.27409871419271,35.10920206705729,31.816482543945312,0.0820159912109375,0.14495849609375,0.11571248372395833,0.0762939453125,22.79345194498698,34.818013509114586
147.0,30.649185180664062,0.031153361002604168,0.004450480143229167,0.008265177408854166,0.013987223307291666,31.302769978841145,45.078277587890625,33.5699717203776,19.913991292317707,21.727879842122395,0.2562204996744792,0.043233235677083336,0.006357828776041667,0.16657511393229166,30.707041422526043,40.217081705729164
148.0,26.159286499023438,0.102996826171875,0.06103515625,0.08455912272135417,0.052769978841145836,36.090850830078125,40.64496358235677,27.757008870442707,23.670196533203125,23.618698120117188,0.013987223307291666,0.0762939453125,0.0438690185546875,0.06866455078125,36.72472635904948,26.751200358072918
149.0,30.240376790364582,0.1277923583984375,0.058492024739583336,0.10808308919270833,0.19709269205729166,35.854339599609375,31.522750854492188,32.95008341471354,33.329010009765625,30.991236368815105,0.17102559407552084,0.11507670084635417,0.015894571940104168,0.10172526041666667,25.967915852864582,25.12359619140625
150.0,39.073944091796875,0.240325927734375,0.052769978841145836,0.2155303955078125,0.08646647135416667,26.238759358723957,33.86751810709635,43.28346252441406,41.13451639811198,35.97831726074219,0.15004475911458334,0.0591278076171875,0.0820159912109375,0.0553131103515625,21.02979024251302,31.07452392578125
151.0,35.46015421549479,0.11507670084635417,0.1735687255859375,0.4971822102864583,0.057856241861979164,27.559280395507812,40.90754191080729,41.81989034016927,26.80206298828125,24.11333719889323,0.0934600830078125,0.13224283854166666,0.0324249267578125,0.17992655436197916,26.415506998697918,40.34996032714844
152.0,24.953842163085938,0.0476837158203125,0.17293294270833334,0.005086263020833333,0.15131632486979166,36.64843241373698,45.1812744140625,28.98852030436198,22.1405029296875,21.447499593098957,0.17484029134114584,0.1506805419921875,0.186920166015625,0.13287862141927084,36.371866861979164,33.037821451822914
153.0,27.660369873046875,0.03814697265625,0.07883707682291667,0.041961669921875,0.24859110514322916,40.72380065917969,35.00175476074219,29.855728149414062,28.1982421875,27.0233154296875,0.064849853515625,0.2810160319010417,0.1964569091796875,0.13097127278645834,33.28768412272135,24.979273478190105
154.0,35.565694173177086,0.3935496012369792,0.034968058268229164,0.0133514404296875,0.20090738932291666,30.18506368001302,31.782150268554688,39.522806803385414,40.0702158610026,36.34071350097656,0.13987223307291666,0.0476837158203125,0.0025431315104166665,0.02288818359375,20.811716715494793,27.564366658528645
155.0,41.315714518229164,0.07565816243489583,0.0476837158203125,0.102996826171875,0.110626220703125,26.137034098307293,35.52055358886719,45.70325215657552,34.830729166666664,31.24682108561198,0.16848246256510416,0.0247955322265625,0.09218851725260417,0.040690104166666664,23.17047119140625,35.55933634440104
156.0,29.689788818359375,0.09218851725260417,0.042597452799479164,0.095367431640625,0.15131632486979166,30.752182006835938,44.27655537923177,33.489227294921875,20.318984985351562,21.780649820963543,0.019073486328125,0.16276041666666666,0.0629425048828125,0.031153361002604168,30.584335327148438,38.40827941894531
157.0,25.938669840494793,0.1850128173828125,0.056584676106770836,0.15513102213541666,0.11761983235677083,36.1932118733724,39.073944091796875,28.111775716145832,24.37591552734375,23.711522420247395,0.2587636311848958,0.040690104166666664,0.12270609537760417,0.026067097981770832,35.82890828450521,25.602976481119793
158.0,30.309041341145832,0.0012715657552083333,0.08710225423177083,0.18437703450520834,0.12715657552083334,34.55988566080729,30.548731486002605,33.68949890136719,33.786773681640625,31.81775410970052,0.10172526041666667,0.008265177408854166,0.07311503092447917,0.1010894775390625,24.445215861002605,25.112152099609375
159.0,39.539337158203125,0.061670939127604164,0.033696492513020836,0.052769978841145836,0.0782012939453125,26.966094970703125,34.44035847981771,43.683369954427086,40.64496358235677,35.64771016438802,0.0247955322265625,0.08455912272135417,0.08455912272135417,0.015894571940104168,21.74822489420573,31.578699747721355
160.0,33.83700052897135,0.049591064453125,0.10617574055989583,0.0133514404296875,0.14813741048177084,27.460098266601562,41.280110677083336,41.78492228190104,25.862375895182293,22.764205932617188,0.0012715657552083333,0.11507670084635417,0.11571248372395833,0.11952718098958333,26.467005411783855,40.608723958333336
161.0,25.167465209960938,0.034968058268229164,0.045140584309895836,0.054041544596354164,0.095367431640625,37.12272644042969,44.72033182779948,27.970631917317707,21.944046020507812,21.207809448242188,0.0012715657552083333,0.09409586588541667,0.1506805419921875,0.2079010009765625,37.050882975260414,32.01484680175781
162.0,27.784983317057293,0.16657511393229166,0.030517578125,0.013987223307291666,0.16721089680989584,39.04406229654948,33.60430399576823,30.74963887532552,28.893788655598957,27.664820353190105,0.004450480143229167,0.033060709635416664,0.054677327473958336,0.2040863037109375,32.20176696777344,24.49353535970052
163.0,36.4068349202474,0.0667572021484375,0.06357828776041667,0.0031789143880208335,0.22951761881510416,30.843098958333332,31.976699829101562,39.40391540527344,40.64496358235677,37.35923767089844,0.061670939127604164,0.19200642903645834,0.021616617838541668,0.029246012369791668,21.063486735026043,28.1982421875
164.0,39.764404296875,0.2740224202473958,0.0400543212890625,0.0514984130859375,0.09918212890625,28.486887613932293,36.24534606933594,46.66709899902344,34.73345438639323,29.389699300130207,0.15004475911458334,0.11507670084635417,0.021616617838541668,0.3725687662760417,24.550120035807293,36.081949869791664
165.0,27.718226114908855,0.062306722005208336,0.3407796223958333,0.1316070556640625,0.06421407063802083,32.24500020345052,45.253753662109375,32.36262003580729,19.98456319173177,20.92297871907552,0.10045369466145833,0.048955281575520836,0.17293294270833334,0.1697540283203125,31.79168701171875,38.637797037760414
166.0,26.224772135416668,0.4609425862630208,0.331878662109375,0.057220458984375,0.080108642578125,38.410186767578125,39.01036580403646,27.82758076985677,24.674733479817707,23.856480916341145,0.031153361002604168,0.024159749348958332,0.10744730631510417,0.06866455078125,36.99938456217448,25.108973185221355
167.0,31.408309936523438,0.0591278076171875,0.058492024739583336,0.22188822428385416,0.0095367431640625,36.5759531656901,30.710220336914062,33.96924336751302,34.029642740885414,32.78923034667969,0.027974446614583332,0.3197987874348958,0.0438690185546875,0.048319498697916664,24.824778238932293,25.074005126953125
168.0,39.70019022623698,0.0972747802734375,0.026702880859375,0.0762939453125,0.07565816243489583,28.2135009765625,34.03155008951823,44.78327433268229,41.04804992675781,35.48431396484375,0.060399373372395836,0.3439585367838542,0.26702880859375,0.0934600830078125,22.530873616536457,31.988779703776043
169.0,33.09822082519531,0.040690104166666664,0.059763590494791664,0.08392333984375,0.09663899739583333,28.406778971354168,42.0080820719401,41.07666015625,24.70080057779948,22.07183837890625,0.033060709635416664,0.026702880859375,0.08392333984375,0.09918212890625,27.368545532226562,40.93233744303385
170.0,26.949564615885418,0.1964569091796875,0.062306722005208336,0.010808308919270834,0.217437744140625,36.28349304199219,44.91106669108073,26.700973510742188,21.500905354817707,22.507349650065105,0.006357828776041667,0.023523966471354168,0.027974446614583332,0.09663899739583333,36.8499755859375,31.418482462565105
171.0,29.161453247070312,0.06993611653645833,0.030517578125,0.049591064453125,0.0934600830078125,40.39128621419271,33.283233642578125,29.123306274414062,28.439839680989582,28.143564860026043,0.044504801432291664,0.08138020833333333,0.08138020833333333,0.015894571940104168,31.7535400390625,24.684906005859375
172.0,36.26823425292969,0.14432271321614584,0.07756551106770833,0.2288818359375,0.005086263020833333,30.042648315429688,32.671610514322914,40.18529256184896,41.41807556152344,37.02608744303385,0.029881795247395832,0.11189778645833333,0.08455912272135417,0.029246012369791668,21.001180013020832,28.667449951171875
173.0,39.20936584472656,0.15703837076822916,0.3458658854166667,0.11507670084635417,0.049591064453125,26.06519063313802,36.90465291341146,46.50751749674479,33.123016357421875,28.494517008463543,0.034332275390625,0.0031789143880208335,0.14495849609375,0.034968058268229164,23.675282796223957,37.29248046875
174.0,26.945114135742188,0.0324249267578125,0.125885009765625,0.06421407063802083,0.0476837158203125,30.810038248697918,45.81133524576823,31.902313232421875,20.575841267903645,20.622889200846355,0.0896453857421875,0.08392333984375,0.07883707682291667,0.3147125244140625,31.400680541992188,37.935892740885414
175.0,25.215784708658855,0.11189778645833333,0.110626220703125,0.050226847330729164,0.0012715657552083333,37.5512440999349,37.75723775227865,28.426488240559895,25.00152587890625,23.94421895345052,0.2460479736328125,0.030517578125,0.240325927734375,0.15195210774739584,36.272684733072914,24.297714233398438
176.0,31.601587931315105,0.08265177408854167,0.025431315104166668,0.06866455078125,0.09854634602864583,34.78686014811198,29.839833577473957,34.98395284016927,35.43408711751302,33.21393330891927,0.07502237955729167,0.09218851725260417,0.025431315104166668,0.244140625,23.466110229492188,24.794896443684895
177.0,39.81590270996094,0.13097127278645834,0.22252400716145834,0.133514404296875,0.3058115641276042,25.807698567708332,34.1949462890625,45.008341471354164,41.194915771484375,35.18486022949219,0.2422332763671875,0.039418538411458336,0.0057220458984375,0.049591064453125,21.544774373372395,32.54063924153646
178.0,32.89922078450521,0.07184346516927083,0.3763834635416667,0.020345052083333332,0.202178955078125,29.567718505859375,43.28282674153646,39.78157043457031,23.471832275390625,21.70880635579427,0.08837381998697917,0.0514984130859375,0.025431315104166668,0.0324249267578125,28.430938720703125,41.225433349609375
179.0,24.764378865559895,0.0247955322265625,0.15894571940104166,0.036875406901041664,0.18946329752604166,35.98149617513021,44.19136047363281,27.601242065429688,21.91162109375,21.385828653971355,0.2002716064453125,0.004450480143229167,0.17484029134114584,0.0705718994140625,37.02227274576823,30.393600463867188
180.0,27.444839477539062,0.06930033365885417,0.08710225423177083,0.13605753580729166,0.095367431640625,37.62181599934896,31.938552856445312,30.913670857747395,29.481252034505207,27.800242106119793,0.026702880859375,0.22951761881510416,0.019073486328125,0.13669331868489584,29.806137084960938,24.251302083333332
181.0,36.30256652832031,0.09981791178385417,0.024159749348958332,0.11444091796875,0.072479248046875,29.080708821614582,31.328837076822918,39.88011678059896,41.58147176106771,36.82263692220052,0.034332275390625,0.045140584309895836,0.034968058268229164,0.080108642578125,20.685195922851562,28.261820475260418
182.0,39.520263671875,0.16657511393229166,0.18310546875,0.13033548990885416,0.09918212890625,26.650746663411457,38.1323496500651,44.54930623372396,30.97852071126302,28.355916341145832,0.1811981201171875,0.1163482666015625,0.1049041748046875,0.0629425048828125,24.184544881184895,38.06114196777344
183.0,25.289535522460938,0.22951761881510416,0.054677327473958336,0.072479248046875,0.2002716064453125,32.31112162272135,46.15020751953125,31.06244405110677,20.507176717122395,20.16766866048177,0.2695719401041667,0.4437764485677083,0.20853678385416666,0.15195210774739584,32.849629720052086,37.226359049479164
184.0,25.3753662109375,0.0171661376953125,0.0743865966796875,0.0400543212890625,0.110626220703125,38.24297587076823,37.6593271891276,28.35528055826823,25.183359781901043,24.278004964192707,0.0457763671875,0.1373291015625,0.2600351969401042,0.017801920572916668,36.23135884602865,24.016062418619793
185.0,32.1814219156901,0.1220703125,0.12524922688802084,0.3032684326171875,0.10553995768229167,35.39594014485677,31.38287862141927,34.932454427083336,36.13853454589844,33.90312194824219,0.010172526041666666,0.0057220458984375,0.14177958170572916,0.0438690185546875,23.427963256835938,25.5889892578125
186.0,40.35822550455729,0.3147125244140625,0.045140584309895836,0.025431315104166668,0.019073486328125,26.495615641276043,34.594217936197914,45.62568664550781,40.51780700683594,33.58141581217448,0.1392364501953125,0.044504801432291664,0.022252400716145832,0.11316935221354167,21.973292032877605,32.976786295572914
187.0,31.484603881835938,0.20154317220052084,0.14241536458333334,0.0019073486328125,0.125885009765625,29.837290445963543,44.03813680013021,39.12480672200521,22.261301676432293,21.025975545247395,0.07756551106770833,0.08138020833333333,0.2778371175130208,0.1316070556640625,28.711318969726562,41.32207234700521
188.0,25.992711385091145,0.232696533203125,0.039418538411458336,0.027974446614583332,0.0025431315104166665,36.84234619140625,43.9612070719401,26.582082112630207,21.78192138671875,22.282918294270832,0.0629425048828125,0.14940897623697916,0.010172526041666666,0.057856241861979164,37.76423136393229,30.11767069498698
189.0,28.742472330729168,0.1773834228515625,0.14432271321614584,0.08455912272135417,0.038782755533854164,40.241241455078125,31.035105387369793,31.324386596679688,30.286788940429688,29.119491577148438,0.057220458984375,0.13097127278645834,0.12969970703125,0.1316070556640625,30.24737040201823,23.84185791015625
190.0,37.68348693847656,0.23969014485677084,0.0152587890625,0.324249267578125,0.1983642578125,29.240926106770832,32.46879577636719,41.0455067952474,42.05195109049479,36.93453470865885,0.18564860026041666,0.10426839192708333,0.0006357828776041666,0.038782755533854164,21.088282267252605,29.092152913411457
191.0,38.2544199625651,0.2562204996744792,0.0476837158203125,0.10744730631510417,0.19582112630208334,26.841481526692707,38.88702392578125,45.679728190104164,30.932108561197918,26.967366536458332,0.10617574055989583,0.016530354817708332,0.1697540283203125,0.026702880859375,24.566650390625,38.516998291015625
192.0,25.51587422688802,0.10236104329427083,0.12715657552083334,0.06993611653645833,0.012079874674479166,30.9906005859375,45.98299662272135,30.305862426757812,20.730336507161457,20.83269755045573,0.003814697265625,0.3197987874348958,0.3636678059895833,0.12842814127604166,32.47706095377604,36.2695058186849
193.0,25.85601806640625,0.0896453857421875,0.11761983235677083,0.0095367431640625,0.18246968587239584,40.07085164388021,36.235809326171875,28.94274393717448,25.76891581217448,24.838765462239582,0.0457763671875,0.12524922688802084,0.0820159912109375,0.11380513509114583,36.2084706624349,23.352305094401043
194.0,33.22537740071615,0.026067097981770832,0.08710225423177083,0.110626220703125,0.2593994140625,33.70984395345052,30.442555745442707,35.61719258626302,36.81246439615885,34.344991048177086,0.13033548990885416,0.072479248046875,0.037511189778645836,0.10744730631510417,22.448221842447918,25.359471638997395
195.0,40.48347473144531,0.3922780354817708,0.046412150065104164,0.19963582356770834,0.3604888916015625,26.663462320963543,35.27259826660156,45.82341512044271,39.835611979166664,33.0359141031901,0.15322367350260416,0.19709269205729166,0.031789143880208336,0.0762939453125,22.28864034016927,33.846537272135414
196.0,30.40758768717448,0.07184346516927083,0.041325887044270836,0.050226847330729164,0.1735687255859375,29.593785603841145,44.11506652832031,37.920633951822914,21.741231282552082,20.38129170735677,0.052134195963541664,0.179290771484375,0.052134195963541664,0.09282430013020833,28.799057006835938,40.738423665364586
197.0,24.69952901204427,0.0025431315104166665,0.07947285970052083,0.05340576171875,0.09473164876302083,34.69657897949219,43.05076599121094,27.449925740559895,22.691090901692707,21.493911743164062,0.008900960286458334,0.044504801432291664,0.08900960286458333,0.2950032552083333,37.32109069824219,29.030481974283855
198.0,29.143015543619793,0.2307891845703125,0.0019073486328125,0.12842814127604166,0.2873738606770833,39.288838704427086,31.358718872070312,31.91375732421875,30.88696797688802,29.272715250651043,0.12143452962239583,0.13287862141927084,0.20281473795572916,0.072479248046875,29.221216837565105,24.129231770833332
199.0,37.73689270019531,0.08710225423177083,0.13860066731770834,0.022252400716145832,0.202178955078125,29.28924560546875,32.18714396158854,41.53569539388021,42.643229166666664,36.50093078613281,0.2950032552083333,0.10426839192708333,0.08265177408854167,0.033060709635416664,21.48119608561198,29.296875
200.0,36.4538828531901,0.06993611653645833,0.026067097981770832,0.14177958170572916,0.038782755533854164,28.937657674153645,39.55650329589844,45.79480489095052,30.06426493326823,25.67736307779948,0.09918212890625,0.019709269205729168,0.19137064615885416,0.044504801432291664,25.889078776041668,39.38929239908854
201.0,26.120503743489582,0.2498626708984375,0.16148885091145834,0.07692972819010417,0.020345052083333332,32.34545389811198,45.382181803385414,29.911041259765625,21.549224853515625,21.02343241373698,0.1220703125,0.054677327473958336,0.2880096435546875,0.080108642578125,33.61384073893229,35.73290506998698
202.0,27.400970458984375,0.0400543212890625,0.3522237141927083,0.186920166015625,0.095367431640625,40.13888041178385,35.39276123046875,29.844284057617188,26.927947998046875,25.430679321289062,0.15195210774739584,0.06802876790364583,0.07756551106770833,0.20917256673177084,35.44044494628906,24.053573608398438
203.0,33.23237101236979,0.34332275390625,0.027974446614583332,0.21235148111979166,0.2644856770833333,33.11856587727865,30.850728352864582,36.09593709309896,37.685394287109375,34.671783447265625,0.1583099365234375,0.03814697265625,0.06421407063802083,0.2040863037109375,22.089004516601562,26.100794474283855
204.0,39.47321573893229,0.07184346516927083,0.029246012369791668,0.1621246337890625,0.0438690185546875,26.597976684570312,35.4773203531901,46.764373779296875,38.47440083821615,32.192230224609375,0.07947285970052083,0.0820159912109375,0.0006357828776041666,0.1087188720703125,22.699991861979168,34.36406453450521
205.0,32.03455607096354,0.1239776611328125,0.19009908040364584,0.08646647135416667,0.08074442545572917,30.00958760579427,44.072469075520836,35.671234130859375,20.954132080078125,22.151947021484375,0.0019073486328125,0.1468658447265625,0.07756551106770833,0.050226847330729164,29.138565063476562,40.08356730143229
206.0,25.953928629557293,0.2530415852864583,0.13097127278645834,0.11316935221354167,0.015894571940104168,37.0941162109375,41.880289713541664,27.951558430989582,23.12469482421875,22.469202677408855,0.06739298502604167,0.034332275390625,0.09918212890625,0.11889139811197917,37.33952840169271,27.698516845703125
207.0,29.72730000813802,0.1583099365234375,0.07120768229166667,0.014623006184895834,0.1735687255859375,37.035624186197914,31.221389770507812,32.375335693359375,31.688690185546875,29.816309611002605,0.21425882975260416,0.004450480143229167,0.08328755696614583,0.0171661376953125,27.337392171223957,24.423599243164062
208.0,38.03189595540365,0.06548563639322917,0.038782755533854164,0.06866455078125,0.026067097981770832,27.090708414713543,32.85408020019531,42.034149169921875,42.26811726888021,36.1181894938151,0.1506805419921875,0.12969970703125,0.3604888916015625,0.286102294921875,20.965576171875,29.843648274739582
209.0,36.45896911621094,0.13287862141927084,0.2956390380859375,0.0031789143880208335,0.1068115234375,28.1982421875,39.754231770833336,44.69935099283854,29.045740763346355,24.993260701497395,0.049591064453125,0.056584676106770836,0.1506805419921875,0.044504801432291664,25.449117024739582,39.53425089518229
210.0,25.177001953125,0.07947285970052083,0.016530354817708332,0.24286905924479166,0.21807352701822916,32.00976053873698,44.73177591959635,28.938929239908855,21.539052327473957,20.71062723795573,0.039418538411458336,0.006357828776041667,0.03814697265625,0.0667572021484375,33.79503885904948,34.67750549316406
211.0,26.205698649088543,0.18246968587239584,0.062306722005208336,0.18437703450520834,0.3255208333333333,38.928985595703125,35.86133321126302,29.581705729166668,26.727040608723957,25.274276733398438,0.19582112630208334,0.20662943522135416,0.019709269205729168,0.06357828776041667,34.30938720703125,24.18200174967448
212.0,33.8134765625,0.3102620442708333,0.095367431640625,0.09600321451822917,0.080108642578125,31.01348876953125,31.084060668945312,36.6668701171875,38.379669189453125,35.13781229654948,0.005086263020833333,0.08519490559895833,0.057220458984375,0.14623006184895834,20.409901936848957,26.533762613932293
213.0,39.705912272135414,0.034968058268229164,0.1239776611328125,0.0629425048828125,0.021616617838541668,25.037129720052082,35.84925333658854,46.38799031575521,37.23462422688802,31.636555989583332,0.0362396240234375,0.07947285970052083,0.2924601236979167,0.044504801432291664,21.869659423828125,34.55988566080729
214.0,29.43102518717448,0.2791086832682292,0.1621246337890625,0.2683003743489583,0.003814697265625,30.32239278157552,44.39417521158854,36.45197550455729,21.324793497721355,20.51226298014323,0.08074442545572917,0.006993611653645833,0.0782012939453125,0.23587544759114584,29.83538309733073,39.95704650878906
215.0,24.439493815104168,0.19073486328125,0.1735687255859375,0.1087188720703125,0.0934600830078125,37.981669108072914,41.049957275390625,28.066635131835938,23.314158121744793,22.609710693359375,0.1277923583984375,0.21489461263020834,0.08710225423177083,0.11444091796875,37.685394287109375,27.1148681640625
216.0,29.166539510091145,0.010808308919270834,0.0457763671875,0.07375081380208333,0.048955281575520836,38.76050313313802,30.981063842773438,32.20367431640625,32.155354817708336,30.20159403483073,0.08455912272135417,0.023523966471354168,0.3414154052734375,0.1087188720703125,27.819315592447918,24.284998575846355
217.0,38.46041361490885,0.18819173177083334,0.025431315104166668,0.08392333984375,0.18310546875,27.24901835123698,32.82801310221354,42.53260294596354,41.25340779622396,36.40619913736979,0.09473164876302083,0.003814697265625,0.11126200358072917,0.057856241861979164,22.16784159342448,30.449549357096355
218.0,37.654876708984375,0.07120768229166667,0.14495849609375,0.1392364501953125,0.1735687255859375,27.89306640625,40.46440124511719,42.02143351236979,26.3519287109375,25.714874267578125,0.09028116861979167,0.0400543212890625,0.2778371175130208,0.10999043782552083,25.986353556315105,39.852142333984375
219.0,26.184717814127605,0.21807352701822916,0.2994537353515625,0.0247955322265625,0.179290771484375,32.13818868001302,45.703887939453125,28.534571329752605,21.72406514485677,21.003087361653645,0.07375081380208333,0.15195210774739584,0.029246012369791668,0.049591064453125,33.97369384765625,34.35961405436198
220.0,26.338577270507812,0.026702880859375,0.19709269205729166,0.08138020833333333,0.11189778645833333,37.389119466145836,34.34117635091146,30.707677205403645,28.337478637695312,25.892893473307293,0.13415018717447916,0.023523966471354168,0.10236104329427083,0.0476837158203125,32.28314717610677,23.78082275390625
221.0,35.69157918294271,0.03814697265625,0.008265177408854166,0.10999043782552083,0.14813741048177084,32.5628916422526,30.530293782552082,36.556243896484375,38.7414296468099,36.443074544270836,0.0006357828776041666,0.022252400716145832,0.06612141927083333,0.16148885091145834,21.856307983398438,26.76709493001302
222.0,40.04669189453125,0.24922688802083334,0.07692972819010417,0.10172526041666667,0.133514404296875,28.586069742838543,36.374409993489586,46.15974426269531,35.96051534016927,30.793507893880207,0.141143798828125,0.202178955078125,0.050862630208333336,0.0476837158203125,24.05993143717448,35.04117329915365
223.0,28.80096435546875,0.057220458984375,0.09791056315104167,0.0025431315104166665,0.013987223307291666,31.84191385904948,44.9682871500651,35.53899129231771,21.22942606608073,20.789464314778645,0.18946329752604166,0.13097127278645834,0.020345052083333332,0.06548563639322917,31.012852986653645,40.17066955566406
224.0,24.67664082845052,0.038782755533854164,0.14750162760416666,0.13224283854166666,0.11444091796875,36.778767903645836,41.08238220214844,28.112411499023438,23.591359456380207,23.149490356445312,0.1201629638671875,0.316619873046875,0.029246012369791668,0.056584676106770836,36.83026631673177,26.586532592773438
225.0,29.818216959635418,0.09409586588541667,0.072479248046875,0.0057220458984375,0.23015340169270834,36.708831787109375,30.673980712890625,32.77397155761719,33.02447001139323,30.595779418945312,0.09473164876302083,0.042597452799479164,0.037511189778645836,0.0012715657552083333,25.81342061360677,24.41724141438802
226.0,38.53734334309896,0.1201629638671875,0.15385945638020834,0.031789143880208336,0.0171661376953125,27.315139770507812,33.4930419921875,43.61534118652344,41.507720947265625,36.214192708333336,0.016530354817708332,0.14432271321614584,0.029881795247395832,0.11761983235677083,21.61089579264323,30.714035034179688
227.0,34.78304545084635,0.1888275146484375,0.012079874674479166,0.008900960286458334,0.091552734375,28.601328531901043,40.55976867675781,43.286641438802086,27.231216430664062,23.272196451822918,0.12524922688802084,0.034968058268229164,0.05340576171875,0.14432271321614584,26.813507080078125,40.14778137207031
228.0,25.539398193359375,0.064849853515625,0.026067097981770832,0.14813741048177084,0.08519490559895833,32.918294270833336,45.590718587239586,27.997970581054688,21.619160970052082,20.826339721679688,0.026067097981770832,0.08519490559895833,0.2231597900390625,0.11761983235677083,34.7741444905599,33.37923685709635
229.0,29.561996459960938,0.17038981119791666,0.11316935221354167,0.07692972819010417,0.00762939453125,37.08330790201823,33.81792704264323,28.849283854166668,27.294158935546875,27.93439229329427,0.2886454264322917,0.17420450846354166,0.035603841145833336,0.186920166015625,31.737009684244793,23.962020874023438
230.0,35.19757588704427,0.17674763997395834,0.13033548990885416,0.11571248372395833,0.06548563639322917,30.01085917154948,30.591964721679688,37.42853800455729,39.1686757405599,35.953521728515625,0.22761027018229166,0.026702880859375,0.018437703450520832,0.0457763671875,20.41308085123698,26.81732177734375
231.0,39.03388977050781,0.19327799479166666,0.18246968587239584,0.1773834228515625,0.13987223307291666,26.680628458658855,36.151885986328125,46.38226826985677,35.411834716796875,29.500961303710938,0.13287862141927084,0.14368693033854166,0.0705718994140625,0.1697540283203125,23.23150634765625,35.39466857910156
232.0,27.336756388346355,0.21489461263020834,0.012079874674479166,0.050226847330729164,0.20090738932291666,30.600229899088543,45.270284016927086,34.44544474283854,21.027882893880207,20.702362060546875,0.13796488444010416,0.09409586588541667,0.087738037109375,0.034332275390625,30.634562174479168,39.79619344075521
233.0,24.595896402994793,0.040690104166666664,0.0820159912109375,0.0012715657552083333,0.0514984130859375,37.6288096110026,39.94433085123698,28.095245361328125,23.888905843098957,22.841135660807293,0.027974446614583332,0.14559427897135416,0.036875406901041664,0.2524058024088542,36.075592041015625,25.263468424479168
234.0,30.320485432942707,0.10744730631510417,0.029881795247395832,0.008265177408854166,0.0362396240234375,35.22427876790365,31.099955240885418,33.6755116780599,33.80521138509115,31.508127848307293,0.0762939453125,0.3732045491536458,0.0476837158203125,0.021616617838541668,25.00597635904948,25.15093485514323
235.0,40.6500498453776,0.08392333984375,0.0006357828776041666,0.0031789143880208335,0.10172526041666667,26.266098022460938,33.82301330566406,42.92106628417969,40.4809315999349,36.94725036621094,0.0247955322265625,0.029881795247395832,0.16911824544270834,0.10363260904947917,21.289825439453125,30.78015645345052
236.0,36.42908732096354,0.15576680501302084,0.08265177408854167,0.392913818359375,0.1544952392578125,29.059727986653645,41.08874003092448,40.81598917643229,25.113423665364582,24.384180704752605,0.045140584309895836,0.08328755696614583,0.008265177408854166,0.0006357828776041666,26.971817016601562,40.88656107584635
237.0,25.382359822591145,0.3662109375,0.164031982421875,0.02288818359375,0.003814697265625,33.00921122233073,45.43622334798177,27.914683024088543,21.83214823404948,21.15186055501302,0.054677327473958336,0.054041544596354164,0.0324249267578125,0.10744730631510417,34.84408060709635,32.215118408203125
238.0,29.4647216796875,0.152587890625,0.048955281575520836,0.15703837076822916,0.036875406901041664,38.56595357259115,32.6226552327474,28.658548990885418,27.922948201497395,28.043746948242188,0.240325927734375,0.040690104166666664,0.039418538411458336,0.2346038818359375,31.696319580078125,23.339589436848957
239.0,35.39848327636719,0.06357828776041667,0.07756551106770833,0.09663899739583333,0.2117156982421875,30.86090087890625,31.30340576171875,38.38920593261719,39.52725728352865,36.402384440104164,0.2613067626953125,0.15767415364583334,0.2772013346354167,0.1049041748046875,21.531422932942707,27.90069580078125
240.0,39.02371724446615,0.118255615234375,0.021616617838541668,0.042597452799479164,0.06548563639322917,26.2451171875,36.754608154296875,45.842488606770836,34.1040293375651,29.760996500651043,0.0247955322265625,0.0476837158203125,0.15576680501302084,0.1220703125,23.534138997395832,36.310831705729164
241.0,27.502695719401043,0.12461344401041667,0.008265177408854166,0.02288818359375,0.09218851725260417,31.965891520182293,45.40824890136719,34.055074055989586,20.69409688313802,20.645777384440105,0.2950032552083333,0.2911885579427083,0.17229715983072916,0.055948893229166664,31.496047973632812,38.930257161458336
242.0,25.70788065592448,0.3172556559244792,0.043233235677083336,0.1430511474609375,0.11189778645833333,38.74524434407552,38.68420918782552,28.43920389811198,24.634043375651043,23.581186930338543,0.034332275390625,0.0743865966796875,0.010808308919270834,0.15958150227864584,36.65733337402344,25.252660115559895
243.0,30.698776245117188,0.0006357828776041666,0.050226847330729164,0.3414154052734375,0.0591278076171875,36.94279988606771,30.780792236328125,33.50067138671875,33.9202880859375,31.854629516601562,0.020345052083333332,0.14432271321614584,0.027974446614583332,0.10935465494791667,25.276819864908855,24.931589762369793
244.0,40.70091247558594,0.054677327473958336,0.34332275390625,0.042597452799479164,0.060399373372395836,28.516769409179688,35.27514139811198,42.93505350748698,39.478302001953125,35.921732584635414,0.12842814127604166,0.1087188720703125,0.07692972819010417,0.0152587890625,23.267745971679688,32.3950449625651
245.0,33.35253397623698,0.052769978841145836,0.0057220458984375,0.14368693033854166,0.050862630208333336,27.394612630208332,41.78174336751302,40.798187255859375,24.888356526692707,22.382100423177082,0.3293355305989583,0.0591278076171875,0.0782012939453125,0.48828125,26.309967041015625,40.92089335123698
246.0,25.85283915201823,0.050226847330729164,0.2193450927734375,0.2778371175130208,0.012715657552083334,33.27178955078125,44.45521036783854,27.961095174153645,22.145589192708332,21.790822347005207,0.20154317220052084,0.072479248046875,0.008265177408854166,0.056584676106770836,34.639994303385414,31.934102376302082
247.0,28.20905049641927,0.3452301025390625,0.0400543212890625,0.11126200358072917,0.14940897623697916,38.72362772623698,32.43573506673177,30.729929606119793,28.91222635904948,27.652740478515625,0.19391377766927084,0.10236104329427083,0.013987223307291666,0.17102559407552084,31.555811564127605,23.958841959635418
248.0,35.64262390136719,0.1697540283203125,0.012715657552083334,0.3522237141927083,0.10808308919270833,28.871536254882812,31.256357828776043,38.29511006673177,39.71036275227865,36.78067525227865,0.16339619954427084,0.16911824544270834,0.06612141927083333,0.004450480143229167,20.317713419596355,27.56945292154948
249.0,39.38992818196615,0.16085306803385416,0.022252400716145832,0.0057220458984375,0.217437744140625,25.660196940104168,37.6898447672526,45.50361633300781,33.65198771158854,28.720855712890625,0.09409586588541667,0.022252400716145832,0.102996826171875,0.2759297688802083,23.06365966796875,36.687215169270836
250.0,27.011871337890625,0.08519490559895833,0.0012715657552083333,0.0171661376953125,0.057220458984375,29.67516581217448,45.48835754394531,32.92210896809896,20.703633626302082,20.622889200846355,0.15894571940104166,0.10744730631510417,0.09600321451822917,0.0820159912109375,30.492146809895832,38.38157653808594
251.0,26.721954345703125,0.1983642578125,0.0514984130859375,0.029246012369791668,0.0476837158203125,37.07249959309896,38.06622823079427,27.359644571940105,24.372100830078125,24.5513916015625,0.010808308919270834,0.013987223307291666,0.19772847493489584,0.15004475911458334,35.46714782714844,24.153391520182293
252.0,32.45417277018229,0.1888275146484375,0.13860066731770834,0.0438690185546875,0.16466776529947916,33.176422119140625,30.941009521484375,32.422383626302086,33.521016438802086,33.29785664876302,0.06421407063802083,0.1926422119140625,0.042597452799479164,0.14177958170572916,22.794087727864582,24.6734619140625
253.0,40.56358337402344,0.1735687255859375,0.08837381998697917,0.1544952392578125,0.07756551106770833,27.548472086588543,34.70611572265625,43.904622395833336,40.22534688313802,35.3539784749349,0.054041544596354164,0.0553131103515625,0.038782755533854164,0.3376007080078125,22.49590555826823,32.22529093424479
254.0,34.60820515950521,0.08646647135416667,0.15004475911458334,0.2307891845703125,0.217437744140625,29.573440551757812,42.3285166422526,38.851420084635414,23.26202392578125,23.19653828938802,0.029246012369791668,0.3382364908854167,0.0762939453125,0.07502237955729167,27.863184611002605,40.766398111979164
255.0,27.129491170247395,0.3814697265625,0.10172526041666667,0.2613067626953125,0.1811981201171875,33.88277689615885,43.20398966471354,26.543299357096355,21.67510986328125,22.518157958984375,0.11316935221354167,0.044504801432291664,0.3382364908854167,0.0152587890625,35.4607899983724,30.179977416992188
256.0,29.605865478515625,0.0972747802734375,0.024159749348958332,0.07692972819010417,0.2613067626953125,40.07085164388021,31.214396158854168,28.991063435872395,28.20905049641927,29.28924560546875,0.08646647135416667,0.012715657552083334,0.055948893229166664,0.1621246337890625,31.26207987467448,23.763656616210938
257.0,37.676493326822914,0.2600351969401042,0.324249267578125,0.005086263020833333,0.1850128173828125,31.003952026367188,31.65753682454427,37.62372334798177,39.744059244791664,37.53662109375,0.021616617838541668,0.008900960286458334,0.034332275390625,0.0247955322265625,22.115071614583332,28.160730997721355
258.0,41.37229919433594,0.11571248372395833,0.21044413248697916,0.044504801432291664,0.033696492513020836,26.85991923014323,37.81572977701823,43.01134745279948,30.984878540039062,29.013951619466145,0.072479248046875,0.09028116861979167,0.19391377766927084,0.12715657552083334,23.50616455078125,37.46223449707031
259.0,28.714497884114582,0.13415018717447916,0.036875406901041664,0.011444091796875,0.19900004069010416,30.654271443684895,45.825958251953125,29.334386189778645,19.651412963867188,22.20916748046875,0.025431315104166668,0.18310546875,0.06357828776041667,0.03814697265625,31.411488850911457,37.868499755859375
260.0,25.590896606445312,0.0152587890625,0.0152587890625,0.10236104329427083,0.09600321451822917,40.54578145345052,37.76105244954427,28.24846903483073,25.012969970703125,24.25384521484375,0.041961669921875,0.058492024739583336,0.08519490559895833,0.2930959065755208,36.8048350016276,24.792989095052082
261.0,31.6619873046875,0.050226847330729164,0.194549560546875,0.0896453857421875,0.033060709635416664,34.12183125813802,31.13873799641927,34.94580586751302,35.395304361979164,33.42501322428385,0.2040863037109375,0.1316070556640625,0.2600351969401042,0.3083546956380208,23.138682047526043,25.269826253255207
262.0,39.48402404785156,0.3267923990885417,0.240325927734375,0.09409586588541667,0.18564860026041666,26.610692342122395,34.550984700520836,45.9295908610026,40.79627990722656,33.67042541503906,0.06612141927083333,0.12270609537760417,0.0934600830078125,0.1049041748046875,21.820068359375,32.60612487792969
263.0,32.071431477864586,0.06802876790364583,0.042597452799479164,0.21870930989583334,0.23396809895833334,29.038111368815105,42.51861572265625,39.25196329752604,23.096720377604168,21.47356669108073,0.019073486328125,0.07375081380208333,0.0006357828776041666,0.0012715657552083333,27.873992919921875,40.43769836425781
264.0,25.34929911295573,0.027974446614583332,0.20472208658854166,0.0858306884765625,0.15004475911458334,35.36033630371094,43.210347493489586,27.97698974609375,22.762298583984375,21.4385986328125,0.07502237955729167,0.110626220703125,0.12969970703125,0.0476837158203125,36.49075826009115,29.985427856445312
265.0,28.22430928548177,0.055948893229166664,0.10553995768229167,0.008265177408854166,0.0629425048828125,39.40900166829427,31.855265299479168,31.223297119140625,30.253092447916668,28.18743387858073,0.080108642578125,0.13287862141927084,0.029246012369791668,0.118255615234375,30.350367228190105,24.477640787760418
266.0,37.17168172200521,0.13478597005208334,0.010172526041666666,0.07883707682291667,0.15703837076822916,30.324935913085938,31.656901041666668,39.974212646484375,41.26612345377604,36.12645467122396,0.039418538411458336,0.3757476806640625,0.0324249267578125,0.09854634602864583,21.286646525065105,28.763453165690105
267.0,38.01409403483073,0.14432271321614584,0.141143798828125,0.012715657552083334,0.05340576171875,27.806599934895832,38.729349772135414,45.07764180501302,31.532923380533855,27.187347412109375,0.12842814127604166,0.2193450927734375,0.07184346516927083,0.10553995768229167,25.174458821614582,37.92126973470052
268.0,25.59343973795573,0.18246968587239584,0.07692972819010417,0.0019073486328125,0.039418538411458336,30.78142801920573,46.063741048177086,31.251907348632812,20.795186360677082,20.685831705729168,0.3331502278645833,0.064849853515625,0.06930033365885417,0.11698404947916667,31.717936197916668,36.99811299641927
269.0,25.575002034505207,0.12270609537760417,0.10236104329427083,0.023523966471354168,0.019709269205729168,38.33134969075521,36.95360819498698,28.734842936197918,25.726954142252605,24.764378865559895,0.057856241861979164,0.13287862141927084,0.054677327473958336,0.049591064453125,35.48240661621094,24.332682291666668
270.0,31.828562418619793,0.10426839192708333,0.043233235677083336,0.008265177408854166,0.1583099365234375,33.90185038248698,30.752817789713543,35.648345947265625,36.15125020345052,33.16942850748698,0.07311503092447917,0.08646647135416667,0.0247955322265625,0.0095367431640625,22.475560506184895,25.396982828776043
271.0,40.76258341471354,0.11444091796875,0.152587890625,0.22252400716145834,0.016530354817708332,27.886708577473957,34.90447998046875,45.2880859375,39.38166300455729,33.550262451171875,0.06421407063802083,0.019709269205729168,0.09473164876302083,0.020345052083333332,23.209889729817707,32.26534525553385
272.0,30.046463012695312,0.012079874674479166,0.2644856770833333,0.17229715983072916,0.0209808349609375,30.657450358072918,43.477376302083336,39.03325398763021,22.725423177083332,20.79455057779948,0.17674763997395834,0.0457763671875,0.1735687255859375,0.029881795247395832,28.87407938639323,40.850321451822914
273.0,24.864832560221355,0.0025431315104166665,0.0629425048828125,0.024159749348958332,0.052769978841145836,34.31129455566406,42.789459228515625,28.110504150390625,22.763570149739582,21.468480428059895,0.19709269205729166,0.15894571940104166,0.11952718098958333,0.018437703450520832,36.17159525553385,29.064178466796875
274.0,28.536478678385418,0.0247955322265625,0.06103515625,0.3191630045572917,0.14495849609375,36.51873270670573,31.3262939453125,31.030019124348957,30.424118041992188,28.932571411132812,0.15576680501302084,0.11380513509114583,0.09981791178385417,0.0006357828776041666,28.327306111653645,24.21887715657552
275.0,36.205291748046875,0.07184346516927083,0.1163482666015625,0.072479248046875,0.012079874674479166,27.704874674479168,31.829833984375,41.620890299479164,42.40608215332031,35.906473795572914,0.2606709798177083,0.035603841145833336,0.08646647135416667,0.11571248372395833,20.556131998697918,28.844197591145832
276.0,37.23971048990885,0.034332275390625,0.11952718098958333,0.09663899739583333,0.12906392415364584,26.123046875,38.67212931315104,45.31160990397135,30.8990478515625,25.964101155598957,0.020345052083333332,0.0006357828776041666,0.0031789143880208335,0.062306722005208336,24.223963419596355,37.85069783528646
277.0,25.63158671061198,0.07756551106770833,0.1201629638671875,0.0012715657552083333,0.010808308919270834,30.740737915039062,45.338948567708336,31.256357828776043,20.964940388997395,20.471572875976562,0.1010894775390625,0.3465016682942708,0.14813741048177084,0.15385945638020834,32.00658162434896,35.945892333984375
278.0,25.755564371744793,0.213623046875,0.004450480143229167,0.019073486328125,0.008900960286458334,37.9950205485026,36.18049621582031,28.79015604654948,26.111602783203125,24.763743082682293,0.10553995768229167,0.15195210774739584,0.12524922688802084,0.13287862141927084,34.60502624511719,23.930867513020832
279.0,33.292134602864586,0.091552734375,0.4533131917317708,0.057220458984375,0.23142496744791666,32.12928771972656,30.687332153320312,35.5828603108724,36.47168477376302,34.0417226155599,0.12524922688802084,0.0025431315104166665,0.013987223307291666,0.02288818359375,21.643956502278645,25.353113810221355
280.0,41.37420654296875,0.014623006184895834,0.0972747802734375,0.048319498697916664,0.005086263020833333,26.063919067382812,35.08186340332031,44.881184895833336,38.539886474609375,33.61829121907552,0.015894571940104168,0.06357828776041667,0.20090738932291666,0.0209808349609375,22.169748942057293,33.17832946777344
281.0,31.014124552408855,0.0324249267578125,0.042597452799479164,0.006357828776041667,0.036875406901041664,31.69568379720052,43.32097371419271,37.60528564453125,21.7742919921875,21.22179667154948,0.09091695149739583,0.1087188720703125,0.13097127278645834,0.278472900390625,29.74383036295573,40.334065755208336
282.0,25.132497151692707,0.14241536458333334,0.5276997884114584,0.1201629638671875,0.19900004069010416,35.121917724609375,41.829427083333336,28.499603271484375,22.978464762369793,21.971384684244793,0.18183390299479166,0.0286102294921875,0.048319498697916664,0.13415018717447916,36.684672037760414,28.242746988932293
283.0,29.04510498046875,0.156402587890625,0.152587890625,0.044504801432291664,0.0006357828776041666,36.45133972167969,30.783335367838543,31.24682108561198,30.69305419921875,29.160181681315105,0.07311503092447917,0.2638498942057292,0.12715657552083334,0.17547607421875,27.662913004557293,24.132410685221355
284.0,37.62499491373698,0.118255615234375,0.22379557291666666,0.18946329752604166,0.0591278076171875,28.130849202473957,32.22020467122396,41.263580322265625,41.97247823079427,35.86578369140625,0.11380513509114583,0.31280517578125,0.07883707682291667,0.13987223307291666,21.056493123372395,29.190699259440105
285.0,36.41573588053385,0.09091695149739583,0.043233235677083336,0.3344217936197917,0.16021728515625,26.526769002278645,39.48847452799479,44.31851704915365,29.92693583170573,25.466283162434895,0.16530354817708334,0.15513102213541666,0.07756551106770833,0.2422332763671875,24.701436360677082,37.92635599772135
286.0,25.64684549967448,0.3827412923177083,0.033696492513020836,0.056584676106770836,0.17992655436197916,32.34736124674479,45.36883036295573,29.998143513997395,21.67510986328125,20.554224650065105,0.027974446614583332,0.031789143880208336,0.06739298502604167,0.021616617838541668,33.2800547281901,35.52436828613281
287.0,26.075998942057293,0.16848246256510416,0.0012715657552083333,0.0133514404296875,0.14432271321614584,39.377848307291664,34.78558858235677,29.38524881998698,26.3824462890625,25.11278788248698,0.1888275146484375,0.027338663736979168,0.0362396240234375,0.052134195963541664,34.6673329671224,23.530324300130207
288.0,32.513936360677086,0.10935465494791667,0.1621246337890625,0.014623006184895834,0.056584676106770836,32.69131978352865,30.562082926432293,35.88040669759115,37.13099161783854,34.21592712402344,0.11380513509114583,0.3732045491536458,0.10553995768229167,0.0133514404296875,21.83214823404948,25.94439188639323
289.0,39.69128926595052,0.08265177408854167,0.06930033365885417,0.0019073486328125,0.050862630208333336,25.9857177734375,35.662333170572914,46.49225870768229,38.6041005452474,32.15471903483073,0.17420450846354166,0.21044413248697916,0.03814697265625,0.2663930257161458,22.15258280436198,34.06079610188802
290.0,30.397415161132812,0.0629425048828125,0.019709269205729168,0.2619425455729167,0.1983642578125,30.259450276692707,43.90271504720052,36.78321838378906,21.269480387369793,21.026611328125,0.0591278076171875,0.11952718098958333,0.10172526041666667,0.06739298502604167,29.30768330891927,40.10200500488281
291.0,25.162378946940105,0.055948893229166664,0.0457763671875,0.025431315104166668,0.14940897623697916,36.130269368489586,42.03987121582031,28.023401896158855,23.354848225911457,22.263844807942707,0.213623046875,0.179290771484375,0.0095367431640625,0.1277923583984375,36.82772318522135,27.849833170572918
292.0,30.839920043945312,0.025431315104166668,0.0438690185546875,0.21616617838541666,0.1316070556640625,37.2155507405599,30.98742167154948,30.977884928385418,30.879974365234375,30.30840555826823,0.0209808349609375,0.08265177408854167,0.0457763671875,0.16911824544270834,27.71313985188802,24.405797322591145
293.0,37.94225056966146,0.0209808349609375,0.048319498697916664,0.12715657552083334,0.017801920572916668,27.065277099609375,32.343546549479164,40.6653086344401,41.13896687825521,36.1639658610026,0.2600351969401042,0.06930033365885417,0.06866455078125,0.18310546875,20.923614501953125,29.893239339192707
294.0,38.05351257324219,0.058492024739583336,0.060399373372395836,0.11126200358072917,0.118255615234375,26.568094889322918,39.52789306640625,41.83324178059896,27.45374043782552,25.88971455891927,0.058492024739583336,0.037511189778645836,0.11189778645833333,0.301361083984375,24.889628092447918,38.9251708984375
295.0,25.179545084635418,0.059763590494791664,0.09091695149739583,0.3407796223958333,0.09791056315104167,31.510035196940105,44.6173350016276,28.421401977539062,21.007537841796875,20.98401387532552,0.017801920572916668,0.11889139811197917,0.041325887044270836,0.0362396240234375,33.09758504231771,34.33926900227865
296.0,25.750478108723957,0.010808308919270834,0.110626220703125,0.0972747802734375,0.1125335693359375,40.08293151855469,34.322102864583336,29.076258341471355,26.571909586588543,25.473912556966145,0.11507670084635417,0.004450480143229167,0.13987223307291666,0.008900960286458334,34.83390808105469,23.469924926757812
297.0,33.43836466471354,0.042597452799479164,0.0286102294921875,0.08392333984375,0.24159749348958334,32.71039326985677,30.945460001627605,37.158966064453125,38.25060526529948,34.90384419759115,0.07184346516927083,0.09282430013020833,0.058492024739583336,0.16339619954427084,21.939595540364582,25.978724161783855
298.0,39.737701416015625,0.14495849609375,0.0896453857421875,0.2155303955078125,0.1697540283203125,27.77862548828125,35.001118977864586,46.65184020996094,37.43871053059896,31.661351521809895,0.3795623779296875,0.011444091796875,0.0667572021484375,0.08710225423177083,23.247400919596355,33.56234232584635
299.0,28.996785481770832,0.012715657552083334,0.09600321451822917,0.1506805419921875,0.095367431640625,29.379526774088543,43.57719421386719,36.64843241373698,21.322250366210938,20.200093587239582,0.02288818359375,0.024159749348958332,0.06802876790364583,0.035603841145833336,29.598236083984375,39.84260559082031
300.0,24.880727132161457,0.046412150065104164,0.3255208333333333,0.17102559407552084,0.0934600830078125,36.46087646484375,41.52743021647135,28.078079223632812,23.291905721028645,22.02161153157552,0.091552734375,0.15131632486979166,0.08519490559895833,0.12969970703125,37.180582682291664,27.030309041341145
301.0,29.850006103515625,0.2752939860026042,0.110626220703125,0.048955281575520836,0.14241536458333334,36.9873046875,30.855814615885418,32.09559122721354,31.982421875,29.869715372721355,0.09981791178385417,0.08900960286458333,0.06612141927083333,0.041325887044270836,26.753743489583332,24.483362833658855
302.0,38.80437215169271,0.091552734375,0.0476837158203125,0.0400543212890625,0.14050801595052084,26.329676310221355,32.543182373046875,42.8314208984375,42.432149251302086,36.609649658203125,0.049591064453125,0.156402587890625,0.335693359375,0.16085306803385416,20.856221516927082,30.181884765625
303.0,36.015828450520836,0.347137451171875,0.19073486328125,0.21107991536458334,0.0324249267578125,28.450647989908855,39.93797302246094,43.68146260579427,27.891159057617188,24.133682250976562,0.179290771484375,0.17102559407552084,0.015894571940104168,0.08328755696614583,25.848388671875,39.858500162760414
304.0,24.64739481608073,0.14432271321614584,0.06357828776041667,0.3865559895833333,0.08646647135416667,33.29149881998698,45.3650156656901,28.3355712890625,20.913441975911457,20.441055297851562,0.025431315104166668,0.12842814127604166,0.019709269205729168,0.050226847330729164,35.016377766927086,34.2858632405599
305.0,26.437123616536457,0.11444091796875,0.10553995768229167,0.0031789143880208335,0.09600321451822917,39.4446055094401,34.515380859375,28.699239095052082,27.192433675130207,26.09570821126302,0.4482269287109375,0.17611185709635416,0.13987223307291666,0.025431315104166668,33.79694620768229,23.703257242838543
306.0,34.65716044108073,0.08519490559895833,0.054677327473958336,0.24096171061197916,0.003814697265625,31.044642130533855,31.322479248046875,36.06224060058594,38.22771708170573,35.741170247395836,0.087738037109375,0.049591064453125,0.0031789143880208335,0.133514404296875,20.355860392252605,26.413599650065105
307.0,41.217803955078125,0.06548563639322917,0.102996826171875,0.026702880859375,0.08900960286458333,25.701522827148438,36.022186279296875,46.231587727864586,36.495208740234375,31.903584798177082,0.12334187825520833,0.3941853841145833,0.0553131103515625,0.4444122314453125,22.32678731282552,34.57768758138021
308.0,30.609766642252605,0.125885009765625,0.039418538411458336,0.09791056315104167,0.050226847330729164,30.14373779296875,44.31788126627604,33.81029764811198,19.574483235677082,21.080652872721355,0.2524058024088542,0.055948893229166664,0.06993611653645833,0.17611185709635416,29.9072265625,39.88329569498698
309.0,25.670369466145832,0.0209808349609375,0.019073486328125,0.0762939453125,0.036875406901041664,37.15960184733073,40.491739908854164,27.604420979817707,23.290634155273438,22.857030232747395,0.05340576171875,0.1468658447265625,0.037511189778645836,0.09854634602864583,37.35796610514323,26.345570882161457
310.0,29.227574666341145,0.050226847330729164,0.13860066731770834,0.19900004069010416,0.2288818359375,37.71082560221354,30.541102091471355,32.863616943359375,33.07406107584635,30.21240234375,0.027974446614583332,0.15894571940104166,0.08710225423177083,0.13860066731770834,26.749928792317707,24.566650390625
311.0,39.944966634114586,0.034968058268229164,0.3064473470052083,0.0400543212890625,0.20345052083333334,26.077906290690105,32.52855936686198,42.08056131998698,41.4117177327474,37.13798522949219,0.018437703450520832,0.0743865966796875,0.008265177408854166,0.08519490559895833,20.772298177083332,30.010223388671875
312.0,34.71565246582031,0.20281473795572916,0.2835591634114583,0.005086263020833333,0.046412150065104164,26.294708251953125,40.42879740397135,42.50907897949219,26.646931966145832,23.261388142903645,0.042597452799479164,0.024159749348958332,0.5563100179036459,0.10553995768229167,25.086720784505207,39.95831807454427
313.0,24.976730346679688,0.2040863037109375,0.0553131103515625,0.050862630208333336,0.064849853515625,33.85035196940104,45.14185587565104,27.585983276367188,20.760854085286457,20.84032694498698,0.047047932942708336,0.06357828776041667,0.1049041748046875,0.031153361002604168,35.37178039550781,33.59858194986979
314.0,26.610056559244793,0.10172526041666667,0.17547607421875,0.038782755533854164,0.10744730631510417,38.942972819010414,33.19549560546875,29.244105021158855,27.418772379557293,26.19489034016927,0.13097127278645834,0.07565816243489583,0.060399373372395836,0.09791056315104167,32.54381815592448,23.455301920572918
315.0,34.3780517578125,0.07947285970052083,0.0457763671875,0.054041544596354164,0.0667572021484375,31.021753946940105,30.950546264648438,37.01082865397135,39.27739461263021,36.107381184895836,0.11571248372395833,0.08392333984375,0.06993611653645833,0.12334187825520833,20.82061767578125,27.46899922688802
316.0,40.346781412760414,0.003814697265625,0.2613067626953125,0.045140584309895836,0.3096262613932292,27.399063110351562,36.94279988606771,45.92768351236979,35.430908203125,31.22393290201823,0.06802876790364583,0.125885009765625,0.0457763671875,0.15576680501302084,23.17047119140625,35.593668619791664
317.0,28.809865315755207,0.06421407063802083,0.0858306884765625,0.17611185709635416,0.07120768229166667,30.394236246744793,45.427958170572914,34.43590799967448,20.619710286458332,20.390828450520832,0.23206075032552084,0.18056233723958334,0.0934600830078125,0.0438690185546875,30.751546223958332,40.21644592285156
318.0,25.315602620442707,0.040690104166666664,0.029246012369791668,0.07947285970052083,0.2714792887369792,38.46549987792969,40.66785176595052,28.144200642903645,23.76111348470052,23.363749186197918,0.12842814127604166,0.07565816243489583,0.08519490559895833,0.08455912272135417,37.401835123697914,26.109059651692707
319.0,30.550003051757812,0.055948893229166664,0.15004475911458334,0.1773834228515625,0.1125335693359375,35.28467814127604,30.5023193359375,32.9437255859375,33.00348917643229,31.009674072265625,0.10172526041666667,0.2155303955078125,0.09918212890625,0.0400543212890625,25.2838134765625,24.584452311197918
320.0,38.88130187988281,0.2079010009765625,0.20853678385416666,0.0095367431640625,0.20090738932291666,25.690078735351562,32.7917734781901,43.772379557291664,41.615804036458336,36.348978678385414,0.22633870442708334,0.060399373372395836,0.021616617838541668,0.008265177408854166,20.874659220377605,30.50676981608073
321.0,35.931905110677086,0.016530354817708332,0.0629425048828125,0.033060709635416664,0.07692972819010417,28.807322184244793,40.47266642252604,42.04559326171875,25.981903076171875,24.230321248372395,0.1773834228515625,0.09409586588541667,0.040690104166666664,0.056584676106770836,27.100245157877605,40.2838389078776
322.0,25.534311930338543,0.091552734375,0.19582112630208334,0.10363260904947917,0.3903706868489583,34.8504384358724,44.65484619140625,28.204600016276043,21.299362182617188,21.375656127929688,0.23969014485677084,0.217437744140625,0.22443135579427084,0.15767415364583334,35.6744130452474,32.7612559000651
323.0,26.671727498372395,0.11189778645833333,0.038782755533854164,0.1220703125,0.17229715983072916,39.51581319173177,33.390045166015625,30.1513671875,28.377532958984375,26.27881368001302,0.09981791178385417,0.072479248046875,0.029246012369791668,0.2040863037109375,32.07270304361979,24.275461832682293
324.0,33.89422098795573,0.031153361002604168,0.064849853515625,0.07375081380208333,0.255584716796875,31.381607055664062,31.06689453125,37.56268819173177,38.81200154622396,35.31710306803385,0.16911824544270834,0.048955281575520836,0.0019073486328125,0.0031789143880208335,21.216710408528645,26.66791280110677
325.0,39.48338826497396,0.046412150065104164,0.046412150065104164,0.18183390299479166,0.0031789143880208335,26.471455891927082,36.40556335449219,46.473185221354164,34.7754160563151,30.020395914713543,0.0705718994140625,0.18628438313802084,0.033696492513020836,0.1087188720703125,23.149490356445312,35.71128845214844
326.0,27.136484781901043,0.019709269205729168,0.047047932942708336,0.19137064615885416,0.011444091796875,31.761805216471355,44.96192932128906,34.36597188313802,20.568211873372395,20.25604248046875,0.10172526041666667,0.08074442545572917,0.13860066731770834,0.3465016682942708,31.355539957682293,39.36004638671875
327.0,25.012969970703125,0.1468658447265625,0.1239776611328125,0.012715657552083334,0.19073486328125,37.50038146972656,39.14515177408854,28.257369995117188,24.454116821289062,23.115793863932293,0.16085306803385416,0.13605753580729166,0.034332275390625,0.133514404296875,36.46977742513021,25.526046752929688
328.0,30.129750569661457,0.16148885091145834,0.049591064453125,0.016530354817708332,0.133514404296875,36.956787109375,30.286788940429688,33.3868662516276,33.57378641764323,31.293869018554688,0.05340576171875,0.10045369466145833,0.043233235677083336,0.16721089680989584,25.770823160807293,24.735768636067707
329.0,38.4667714436849,0.09791056315104167,0.09028116861979167,0.010808308919270834,0.12524922688802084,28.6865234375,33.64245096842448,43.34131876627604,41.03279113769531,34.8351796468099,0.21680196126302084,0.17293294270833334,0.18374125162760416,0.17674763997395834,22.295633951822918,31.060536702473957
330.0,33.68695576985677,0.156402587890625,0.2791086832682292,0.1220703125,0.16848246256510416,29.845555623372395,41.34941101074219,41.89618428548177,25.940577189127605,22.252400716145832,0.17038981119791666,0.11380513509114583,0.033696492513020836,0.058492024739583336,27.680714925130207,40.913899739583336
331.0,24.738311767578125,0.06548563639322917,0.24541219075520834,0.11571248372395833,0.0743865966796875,35.471598307291664,45.013427734375,28.059641520182293,21.490097045898438,21.140416463216145,0.041961669921875,0.044504801432291664,0.0006357828776041666,0.07311503092447917,36.2860361735026,32.13946024576823
332.0,26.85864766438802,0.13033548990885416,0.2759297688802083,0.186920166015625,0.22570292154947916,38.892110188802086,32.46752421061198,29.923121134440105,28.67444356282552,26.458104451497395,0.08265177408854167,0.1888275146484375,0.020345052083333332,0.18310546875,31.546910603841145,23.564656575520832
333.0,35.074869791666664,0.0362396240234375,0.021616617838541668,0.0012715657552083333,0.08265177408854167,30.667622884114582,31.141281127929688,38.4063720703125,39.410909016927086,36.4227294921875,0.1049041748046875,0.125885009765625,0.102996826171875,0.09091695149739583,20.7977294921875,27.448018391927082
334.0,39.22907511393229,0.031153361002604168,0.16466776529947916,0.036875406901041664,0.13097127278645834,26.131947835286457,36.10547383626302,46.396891276041664,34.18858846028646,29.386520385742188,0.2002716064453125,0.06993611653645833,0.13796488444010416,0.19582112630208334,23.058573404947918,36.051432291666664
335.0,26.94384256998698,0.0553131103515625,0.1373291015625,0.15703837076822916,0.006357828776041667,32.030741373697914,45.50997416178385,33.54199727376302,20.676294962565105,20.245869954427082,0.0476837158203125,0.014623006184895834,0.06421407063802083,0.08455912272135417,31.480153401692707,39.11590576171875
336.0,25.568008422851562,0.10426839192708333,0.041961669921875,0.056584676106770836,0.0362396240234375,38.19402058919271,39.363861083984375,28.108596801757812,24.109522501627605,23.591359456380207,0.021616617838541668,0.23523966471354166,0.09282430013020833,0.029881795247395832,36.51555379231771,24.883270263671875
337.0,30.884424845377605,0.0629425048828125,0.0705718994140625,0.0031789143880208335,0.06421407063802083,36.471048990885414,30.785242716471355,33.93427530924479,34.55352783203125,32.190958658854164,0.3185272216796875,0.0457763671875,0.10553995768229167,0.2733866373697917,25.232315063476562,24.950663248697918
338.0,39.65187072753906,0.2727508544921875,0.060399373372395836,0.11507670084635417,0.07756551106770833,25.622049967447918,34.435272216796875,44.87164815266927,41.26294453938802,35.550435384114586,0.24859110514322916,0.036875406901041664,0.09791056315104167,0.031789143880208336,21.261850992838543,31.623204549153645
339.0,33.86688232421875,0.006357828776041667,0.17484029134114584,0.10236104329427083,0.11189778645833333,27.887344360351562,41.4435068766276,41.09001159667969,24.794260660807293,22.223790486653645,0.07502237955729167,0.0705718994140625,0.3509521484375,0.17293294270833334,26.796340942382812,40.55595397949219
340.0,24.724324544270832,0.057856241861979164,0.15385945638020834,0.354766845703125,0.0006357828776041666,32.59595235188802,44.62496439615885,27.64574686686198,21.558761596679688,21.018346150716145,0.12334187825520833,0.11761983235677083,0.019073486328125,0.021616617838541668,34.32655334472656,31.63592020670573
341.0,27.044296264648438,0.049591064453125,0.10363260904947917,0.036875406901041664,0.048319498697916664,38.26713562011719,32.25262959798177,30.471165974934895,28.966267903645832,27.009328206380207,0.4075368245442708,0.1811981201171875,0.20535786946614584,0.19200642903645834,30.850728352864582,23.484547932942707
342.0,35.65406799316406,0.0896453857421875,0.1087188720703125,0.039418538411458336,0.014623006184895834,30.11639912923177,30.539830525716145,38.86858622233073,39.934794108072914,36.49202982584635,0.006993611653645833,0.19327799479166666,0.031789143880208336,0.026067097981770832,20.48937479654948,27.468363444010418
343.0,38.75859578450521,0.16021728515625,0.2765655517578125,0.15513102213541666,0.0858306884765625,27.573267618815105,37.456512451171875,46.198527018229164,33.74799092610677,28.334299723307293,0.3617604573567708,0.1163482666015625,0.06866455078125,0.12079874674479167,24.1546630859375,36.710103352864586
344.0,26.20379130045573,0.10553995768229167,0.1125335693359375,0.008900960286458334,0.041961669921875,31.716028849283855,45.58753967285156,32.999674479166664,20.673116048177082,20.413716634114582,0.10426839192708333,0.013987223307291666,0.034968058268229164,0.048319498697916664,31.454722086588543,38.60600789388021
345.0,25.263468424479168,0.07883707682291667,0.13415018717447916,0.12079874674479167,0.1392364501953125,36.78003946940104,38.44134012858073,28.192520141601562,24.604161580403645,23.390452067057293,0.0762939453125,0.00762939453125,0.13097127278645834,0.12270609537760417,35.74371337890625,24.51324462890625
346.0,31.157175699869793,0.02288818359375,0.035603841145833336,0.0782012939453125,0.2854665120442708,35.4150136311849,30.745188395182293,34.25470987955729,34.7601572672526,32.61248270670573,0.0629425048828125,0.20726521809895834,0.15703837076822916,0.4119873046875,24.106979370117188,25.067647298177082
347.0,39.63534037272135,0.13287862141927084,0.17420450846354166,0.0400543212890625,0.0782012939453125,28.247833251953125,33.610026041666664,44.78327433268229,40.819803873697914,35.16387939453125,0.12652079264322916,0.0057220458984375,0.07565816243489583,0.0591278076171875,22.46411641438802,32.114664713541664
348.0,32.268524169921875,0.042597452799479164,0.213623046875,0.1239776611328125,0.11889139811197917,28.91222635904948,42.25985209147135,40.11853535970052,24.085362752278645,21.256764729817707,0.18437703450520834,0.14559427897135416,0.1125335693359375,0.07947285970052083,27.598063151041668,40.93805948893229
349.0,24.578094482421875,0.09600321451822917,0.08328755696614583,0.125885009765625,0.035603841145833336,35.50275166829427,44.95938618977865,27.73284912109375,22.181193033854168,21.001815795898438,0.06930033365885417,0.2638498942057292,0.0705718994140625,0.046412150065104164,36.24407450358073,31.737009684244793
350.0,27.322133382161457,0.045140584309895836,0.17801920572916666,0.054677327473958336,0.10935465494791667,38.472493489583336,31.91820780436198,30.517578125,29.254913330078125,27.7252197265625,0.057856241861979164,0.17865498860677084,0.11189778645833333,0.019073486328125,30.356725056966145,23.86474609375
351.0,35.30565897623698,0.029246012369791668,0.17611185709635416,0.2962748209635417,0.16148885091145834,28.583526611328125,31.030654907226562,39.53742980957031,40.88465372721354,35.84861755371094,0.06993611653645833,0.022252400716145832,0.07883707682291667,0.034968058268229164,20.556131998697918,27.42767333984375
352.0,38.87939453125,0.3299713134765625,0.3833770751953125,0.0209808349609375,0.07184346516927083,25.489171346028645,37.333170572916664,43.99871826171875,32.66334533691406,28.7017822265625,0.1621246337890625,0.12079874674479167,0.050862630208333336,0.023523966471354168,23.335774739583332,37.358601888020836
353.0,26.549657185872395,0.17865498860677084,0.07692972819010417,0.10999043782552083,0.0012715657552083333,29.189427693684895,45.84058125813802,32.917022705078125,21.30572001139323,20.372390747070312,0.022252400716145832,0.23523966471354166,0.0476837158203125,0.2740224202473958,30.31158447265625,37.811279296875
354.0,26.75310770670573,0.042597452799479164,0.017801920572916668,0.06357828776041667,0.2880096435546875,37.39356994628906,37.11827596028646,27.701059977213543,24.225870768229168,24.747848510742188,0.035603841145833336,0.08900960286458333,0.087738037109375,0.14432271321614584,35.786946614583336,24.586995442708332
355.0,31.740824381510418,0.1163482666015625,0.08837381998697917,0.11761983235677083,0.006993611653645833,34.777323404947914,30.101776123046875,33.83064270019531,34.403483072916664,32.839457194010414,0.16021728515625,0.29754638671875,0.06739298502604167,0.040690104166666664,23.815155029296875,24.667104085286457
356.0,40.096282958984375,0.24477640787760416,0.21807352701822916,0.0031789143880208335,0.06802876790364583,27.680714925130207,33.98259480794271,45.67527770996094,41.172027587890625,34.49821472167969,0.13860066731770834,0.2384185791015625,0.003814697265625,0.043233235677083336,22.65612284342448,32.5934092203776
357.0,32.54063924153646,0.060399373372395836,0.2079010009765625,0.0514984130859375,0.21298726399739584,28.404871622721355,40.85858662923177,40.073394775390625,23.632049560546875,21.963755289713543,0.12524922688802084,0.0019073486328125,0.1735687255859375,0.017801920572916668,26.933034261067707,39.9169921875
358.0,25.079727172851562,0.016530354817708332,0.08837381998697917,0.13033548990885416,0.006993611653645833,32.96788533528646,43.331146240234375,27.848561604817707,22.324244181315105,21.46466573079427,0.050862630208333336,0.2657572428385417,0.059763590494791664,0.09854634602864583,35.3234608968099,30.31476338704427
359.0,27.345657348632812,0.19900004069010416,0.008900960286458334,0.0457763671875,0.10363260904947917,38.94360860188802,30.845006306966145,30.893961588541668,28.975168863932293,27.811050415039062,0.0438690185546875,0.06548563639322917,0.19900004069010416,0.3274281819661458,30.15454610188802,23.778279622395832
360.0,35.761515299479164,0.012079874674479166,0.16721089680989584,0.125885009765625,0.15385945638020834,30.857086181640625,30.946095784505207,39.85277811686198,41.10527038574219,36.70946756998698,0.13478597005208334,0.06866455078125,0.14623006184895834,0.010808308919270834,21.451314290364582,27.844746907552082
361.0,38.927714029947914,0.16085306803385416,0.0031789143880208335,0.054041544596354164,0.20535786946614584,27.173995971679688,38.04842631022135,44.1430409749349,32.16997782389323,27.88543701171875,0.2155303955078125,0.036875406901041664,0.11761983235677083,0.14750162760416666,24.288177490234375,37.160237630208336
362.0,26.635487874348957,0.0400543212890625,0.0006357828776041666,0.14177958170572916,0.08138020833333333,32.2411855061849,45.69435119628906,31.689961751302082,20.897547403971355,20.769755045572918,0.06866455078125,0.0012715657552083333,0.0972747802734375,0.09409586588541667,32.00213114420573,37.015279134114586
363.0,25.374730428059895,0.045140584309895836,0.1373291015625,0.10617574055989583,0.18946329752604166,37.6288096110026,37.19965616861979,28.020222981770832,25.06701151529948,24.074554443359375,0.06930033365885417,0.1010894775390625,0.06739298502604167,0.02288818359375,35.81047058105469,24.028778076171875
364.0,33.955891927083336,0.09028116861979167,0.3083546956380208,0.3903706868489583,0.06866455078125,33.069610595703125,30.52202860514323,33.08931986490885,34.2553456624349,34.47278340657552,0.07883707682291667,0.16657511393229166,0.06357828776041667,0.09600321451822917,22.542953491210938,25.232315063476562
365.0,40.27748107910156,0.13860066731770834,0.095367431640625,0.0591278076171875,0.22443135579427084,27.542750040690105,34.16124979654948,44.414520263671875,40.61063130696615,34.243265787760414,0.07565816243489583,0.15958150227864584,0.08519490559895833,0.08900960286458333,22.666295369466145,32.643636067708336
366.0,31.691233317057293,0.049591064453125,0.0247955322265625,0.0031789143880208335,0.274658203125,28.60260009765625,42.438507080078125,39.554595947265625,23.159027099609375,21.113077799479168,0.12524922688802084,0.10553995768229167,0.0025431315104166665,0.19582112630208334,27.690887451171875,40.50572713216146
367.0,25.002797444661457,0.11761983235677083,0.4475911458333333,0.10808308919270833,0.225067138671875,35.732269287109375,43.3661142985026,27.924219767252605,22.431055704752605,21.535237630208332,0.12461344401041667,0.054677327473958336,0.21680196126302084,0.072479248046875,36.570231119791664,30.04137674967448
368.0,27.222951253255207,0.058492024739583336,0.0057220458984375,0.013987223307291666,0.331878662109375,38.86731465657552,31.2957763671875,30.763626098632812,29.626210530598957,28.14928690592448,0.2307891845703125,0.2695719401041667,0.15513102213541666,0.09981791178385417,30.635833740234375,23.88318379720052
369.0,37.029266357421875,0.0012715657552083333,0.1277923583984375,0.038782755533854164,0.026702880859375,28.867085774739582,30.93274434407552,39.0021006266276,40.91771443684896,36.32418314615885,0.19518534342447916,0.039418538411458336,0.14813741048177084,0.09473164876302083,20.522435506184895,28.400421142578125
370.0,37.80364990234375,0.0209808349609375,0.14177958170572916,0.0667572021484375,0.19391377766927084,27.23375956217448,37.84306844075521,44.53086853027344,31.357447306315105,26.95782979329427,0.06802876790364583,0.240325927734375,0.06612141927083333,0.148773193359375,24.476369222005207,37.541707356770836
371.0,25.652567545572918,0.025431315104166668,0.1392364501953125,0.039418538411458336,0.19391377766927084,31.865437825520832,45.71851094563802,31.823476155598957,20.926793416341145,20.04241943359375,0.023523966471354168,0.141143798828125,0.087738037109375,0.1888275146484375,31.889597574869793,37.0489756266276
372.0,27.542750040690105,0.0553131103515625,0.09663899739583333,0.10553995768229167,0.10172526041666667,37.90283203125,37.005106608072914,26.332855224609375,24.6124267578125,25.881449381510418,0.026702880859375,0.21870930989583334,0.0438690185546875,0.15576680501302084,35.94398498535156,24.118423461914062
373.0,31.960169474283855,0.10172526041666667,0.027338663736979168,0.035603841145833336,0.1964569091796875,34.6673329671224,30.432383219401043,34.29349263509115,35.55107116699219,33.794403076171875,0.247955322265625,0.0006357828776041666,0.010808308919270834,0.2721150716145833,23.003260294596355,25.292078653971355
374.0,39.845784505208336,0.179290771484375,0.08455912272135417,0.055948893229166664,0.12969970703125,27.788162231445312,34.3786875406901,44.644673665364586,39.70209757486979,33.76960754394531,0.026702880859375,0.08392333984375,0.13033548990885416,0.14177958170572916,22.989908854166668,33.10585021972656
375.0,31.981150309244793,0.020345052083333332,0.24541219075520834,0.20281473795572916,0.125885009765625,29.089609781901043,42.667388916015625,38.43561808268229,22.319793701171875,21.45830790201823,0.14559427897135416,0.133514404296875,0.18628438313802084,0.010172526041666666,28.004964192708332,40.50445556640625
376.0,24.244944254557293,0.17420450846354166,0.0782012939453125,0.06421407063802083,0.1239776611328125,36.70501708984375,43.033599853515625,27.58344014485677,22.613525390625,21.746317545572918,0.008265177408854166,0.1678466796875,0.019073486328125,0.054677327473958336,37.30456034342448,29.233296712239582
377.0,28.128941853841145,0.064849853515625,0.3916422526041667,0.027974446614583332,0.064849853515625,36.72472635904948,31.038284301757812,31.111399332682293,30.112584431966145,28.57653299967448,0.06739298502604167,0.041961669921875,0.048319498697916664,0.040690104166666664,29.422760009765625,24.2767333984375
378.0,36.702473958333336,0.12270609537760417,0.004450480143229167,0.057856241861979164,0.061670939127604164,27.94202168782552,30.487696329752605,41.99409484863281,42.589823404947914,35.6756846110026,0.20535786946614584,0.048319498697916664,0.14050801595052084,0.1239776611328125,20.006179809570312,28.622945149739582
379.0,37.76105244954427,0.3026326497395833,0.18374125162760416,0.1583099365234375,0.3083546956380208,26.181538899739582,37.189483642578125,44.49590047200521,30.902862548828125,26.994705200195312,0.046412150065104164,0.055948893229166664,0.09091695149739583,0.029881795247395832,24.361292521158855,37.31981913248698
380.0,25.368372599283855,0.0896453857421875,0.027974446614583332,0.046412150065104164,0.19200642903645834,32.04027811686198,45.641581217447914,30.429840087890625,20.285924275716145,20.189285278320312,0.13097127278645834,0.20090738932291666,0.09473164876302083,0.050862630208333336,32.81339009602865,36.2860361735026
381.0,25.70343017578125,0.0152587890625,0.186920166015625,0.017801920572916668,0.1277923583984375,39.75613911946615,37.03435262044271,28.546651204427082,25.576273600260418,24.826685587565105,0.06612141927083333,0.016530354817708332,0.06866455078125,0.0438690185546875,36.46024068196615,24.019241333007812
382.0,32.57560729980469,0.14813741048177084,0.018437703450520832,0.06103515625,0.060399373372395836,33.0810546875,30.132293701171875,34.30620829264323,35.65088907877604,33.63672892252604,0.102996826171875,0.2930959065755208,0.03814697265625,0.052134195963541664,22.16784159342448,25.107065836588543
383.0,39.97675577799479,0.0972747802734375,0.3350575764973958,0.09791056315104167,0.13033548990885416,26.945749918619793,34.716288248697914,44.47746276855469,39.31554158528646,33.725738525390625,0.016530354817708332,0.08837381998697917,0.09282430013020833,0.1163482666015625,22.83795674641927,33.344268798828125
384.0,30.817667643229168,0.10045369466145833,0.09218851725260417,0.13415018717447916,0.2422332763671875,30.17743428548177,43.54667663574219,38.402557373046875,22.410074869791668,20.505905151367188,0.033696492513020836,0.010172526041666666,0.18310546875,0.0031789143880208335,28.767903645833332,40.570576985677086
385.0,24.29517110188802,0.041325887044270836,0.027974446614583332,0.023523966471354168,0.033696492513020836,35.28785705566406,44.29181416829427,27.950286865234375,22.618611653645832,21.843592325846355,0.09791056315104167,0.16466776529947916,0.0209808349609375,0.17420450846354166,36.603291829427086,29.96508280436198
386.0,28.593699137369793,0.14940897623697916,0.21998087565104166,0.23905436197916666,0.08837381998697917,36.48567199707031,30.995686848958332,31.157811482747395,30.2581787109375,28.546651204427082,0.11507670084635417,0.023523966471354168,0.0247955322265625,0.040690104166666664,28.67444356282552,24.063746134440105
