Time,S1_D1_Red,S2_D2_Red,S3_D3_Red,S4_D4_Red,S5_D5_Red,S6_D6_Red,S7_D7_Red,S8_D8_Red,S1_D1_Ir,S2_D2_Ir,S3_D3_Ir,S4_D4_Ir,S5_D5_Ir,S6_D6_Ir,S7_D7_Ir,S8_D8_Ir
0.0,2708.3333333333335,2541.666030883789,2375.6510416666665,4749.836603800456,3170.578638712565,3798.346837361654,724.4377136230469,2591.791788736979,1083.3333333333333,2541.666030883789,1708.8216145833333,2333.3326975504556,4831.057866414388,4639.81564839681,4625.3312428792315,3618.3293660481772
1.0,499.83660380045575,41.666666666666664,666.0149892171224,1124.9993642171223,105.14068603515625,4691.240310668945,3803.8768768310547,1334.3079884847004,1208.3333333333333,666.6666666666666,42.317708333333336,3333.3326975504556,1139.9752298990886,3628.7415822347007,2101.2388865152993,4125.489552815755
2.0,2833.49609375,1458.49609375,3750.6510416666665,2083.3326975504556,2057.2903951009116,838.5403951009115,1163.735071818034,4239.095687866211,708.3333333333334,4583.49609375,3124.673843383789,3458.3326975504556,1409.6666971842449,2281.7370096842446,599.9355316162109,1387.044906616211
3.0,2833.3326975504556,2458.3333333333335,2415.8522288004556,5250.48828125,2585.2858225504556,4203.450520833333,2571.2877909342446,3800.2936045328775,1333.49609375,1625.1627604166667,3666.0149892171225,5166.829427083333,3096.841812133789,1942.5455729166667,3708.0065409342446,4453.776041666667
4.0,3458.169937133789,1499.9993642171223,2875.8138020833335,5166.666666666667,2358.88671875,4549.315770467122,2586.751937866211,4200.1953125,3833.3326975504556,2541.6666666666665,3791.0149892171225,4083.6588541666665,4310.221354166667,4638.996760050456,5243.489583333333,3313.3138020833335
5.0,4541.666666666667,3000.1627604166665,1667.6432291666667,749.9993642171224,4985.83984375,3710.9368642171225,2536.9466145833335,894.2057291666666,3666.666030883789,5166.829427083333,1165.8522288004558,4666.829427083333,5272.786458333333,4780.436197916667,3973.794937133789,4945.311864217122
6.0,5125.162760416667,458.33269755045575,2834.1471354166665,4499.999364217122,4283.203125,3535.9700520833335,1734.86328125,3387.2063954671225,1000.0,1458.3333333333333,2417.3177083333335,375.0,2639.4850413004556,2150.87890625,3773.7623850504556,3890.787124633789
7.0,916.5032704671224,750.1627604166666,667.6432291666666,2750.0,2343.423843383789,4736.328125,5152.994791666667,3957.6822916666665,3041.666030883789,4416.666030883789,4082.681655883789,3291.6666666666665,1224.6087392171223,5105.956395467122,1893.3912913004558,2032.5520833333333
8.0,3499.9993642171225,2416.666030883789,749.3483225504557,3833.3333333333335,443.1966145833333,2934.4069163004556,3163.7369791666665,203.125,874.8366038004557,3583.0071767171225,417.48046875,791.8294270833334,1270.1822916666667,3771.1588541666665,5094.400405883789,3483.3984375
9.0,4708.333333333333,1791.666030883789,292.48046875,4166.503270467122,3562.9876454671225,619.9544270833334,2411.7838541666665,601.0735829671224,2958.169937133789,3250.0,4832.681655883789,2166.6666666666665,3857.2584788004556,4488.118489583333,3402.83203125,5138.834635416667
10.0,2249.9993642171225,1416.666030883789,2124.185562133789,4583.49609375,489.5833333333333,2046.3860829671223,1095.5397288004558,1892.578125,3708.3333333333335,2833.49609375,3041.0149892171225,5208.332697550456,3527.0182291666665,2695.3125,2229.00390625,3023.4368642171225
11.0,708.3333333333334,2291.666030883789,4209.147135416667,500.1627604166667,5299.966812133789,3010.0905100504556,1104.8177083333333,1002.9290517171224,1375.0,583.3333333333334,3624.5110829671225,4708.332697550456,1097.330093383789,311.19728088378906,3690.2662913004556,1926.431655883789
12.0,4125.162760416667,4958.49609375,2666.0149892171225,958.49609375,4719.725926717122,3350.748062133789,4590.982437133789,4663.899739583333,4666.829427083333,4416.666030883789,5042.317708333333,3666.666030883789,4602.375666300456,3564.9407704671225,3304.361343383789,762.0436350504557
13.0,2125.1627604166665,3041.666030883789,374.18556213378906,3375.1627604166665,4814.94140625,698.0794270833334,2705.2408854166665,1322.265625,1374.9993642171223,1041.6666666666667,1291.177749633789,3208.3333333333335,1482.9095204671223,1526.0416666666667,4553.547541300456,5063.638687133789
14.0,1750.1627604166667,3083.3333333333335,3667.48046875,4166.503270467122,3733.7239583333335,1370.60546875,2632.6491038004556,2440.2662913004556,4041.6666666666665,1458.3326975504558,957.8444163004557,4041.6666666666665,2061.197280883789,279.6223958333333,3107.7473958333335,4763.346354166667
15.0,3749.9993642171225,3249.9993642171225,1667.48046875,4875.0,1092.2845204671223,3659.5052083333335,4524.251302083333,5177.896499633789,3666.6666666666665,291.8294270833333,3374.673843383789,2666.6666666666665,735.5143229166666,2267.0892079671225,4108.397801717122,4598.306655883789
16.0,3125.0,5083.49609375,1832.681655883789,166.66603088378906,948.0794270833334,681.3144683837891,2194.6614583333335,165.52734375,1999.9993642171223,541.6666666666666,5125.651041666667,3458.3333333333335,2149.90234375,2148.599624633789,3482.0963541666665,4051.2688954671225
17.0,1416.6666666666667,4416.666666666667,4332.681655883789,3500.3255208333335,1775.7161458333333,4268.391291300456,2711.7506663004556,2339.029312133789,2625.3255208333335,4875.0,167.31770833333334,2083.3326975504556,4231.607437133789,1063.4765625,553.0592600504557,4642.089207967122
18.0,2625.1627604166665,291.6666666666667,3042.3177083333335,2791.6666666666665,2019.8561350504558,2129.7194163004556,3380.6959788004556,1935.220718383789,2291.666030883789,5291.503270467122,4792.317708333333,4166.829427083333,2981.4446767171225,4737.955729166667,4986.002604166667,1221.6796875
19.0,750.1627604166666,3708.3333333333335,3459.1471354166665,3791.6666666666665,4697.591145833333,214.19207255045572,2445.3125,601.5625,3916.8294270833335,4374.836603800456,1375.6510416666667,3625.0,3443.5221354166665,4819.498697916667,3978.1901041666665,313.9642079671224
20.0,3125.0,1916.5032704671223,792.48046875,3666.6666666666665,3450.0325520833335,135.90431213378906,2479.6549479166665,1956.54296875,5249.999364217122,1374.9993642171223,4499.348322550456,2749.9993642171225,1735.5143229166667,2936.5228017171225,1185.05859375,2342.7728017171225
21.0,2083.3326975504556,2583.3333333333335,457.68165588378906,1041.5032704671223,1719.5631663004558,3357.0963541666665,4451.334635416667,3621.2565104166665,1708.49609375,208.33269755045572,4833.821614583333,333.3333333333333,2147.6236979166665,1981.2819163004558,1445.80078125,2945.6380208333335
22.0,3083.49609375,1333.3333333333333,3249.3483225504556,958.49609375,4935.871760050456,676.4316558837891,1919.7584788004558,695.9635416666666,3125.3255208333335,5166.666030883789,2792.48046875,41.666666666666664,3267.08984375,3276.5299479166665,3512.0436350504556,1602.3763020833333
23.0,4583.333333333333,4083.49609375,291.17774963378906,5249.999364217122,1140.298843383789,1337.564468383789,1799.966812133789,3316.080093383789,2416.6666666666665,4749.999364217122,1167.1549479166667,5208.169937133789,4772.4609375,3737.6302083333335,1940.5924479166667,1722.3307291666667
24.0,4083.3333333333335,3624.9993642171225,4791.014989217122,1333.3326975504558,408.3658854166667,3534.8307291666665,3892.4147288004556,4552.245457967122,3958.3326975504556,1708.49609375,2958.8216145833335,916.6660308837891,360.0260416666667,2433.755874633789,1475.4231770833333,359.86328125
25.0,3833.3333333333335,3416.6666666666665,4792.643229166667,1666.666030883789,3677.0826975504556,2651.3671875,3986.4908854166665,335.12306213378906,3333.3333333333335,3041.666030883789,2875.48828125,3166.5032704671225,4483.072916666667,1601.7252604166667,2600.9108225504556,3073.0794270833335
26.0,4125.0,4249.999364217122,2332.5188954671225,41.66603088378906,3349.1204579671225,1273.92578125,4871.744791666667,1743.3268229166667,41.9921875,3499.9993642171225,5166.014989217122,4416.9921875,3143.5546875,2730.46875,2261.5553538004556,2274.2513020833335
27.0,1999.9993642171223,1416.666030883789,1875.9765625,4166.829427083333,1854.6549479166667,1995.7682291666667,3005.8587392171225,3728.0267079671225,83.33269755045573,3791.666030883789,5167.643229166667,3083.0071767171225,1435.546875,4386.718114217122,3443.84765625,4361.653010050456
28.0,5041.666666666667,5041.666666666667,2540.5267079671225,2000.0,5093.098322550456,2256.3470204671225,4069.6614583333335,189.77801005045572,2208.3326975504556,1333.3333333333333,457.19337463378906,1499.9993642171223,3235.5143229166665,431.31446838378906,269.04296875,4562.662124633789
29.0,2458.3333333333335,208.33269755045572,251.46484375,958.49609375,3300.455093383789,363.76953125,3519.5306142171225,3248.6979166666665,0.0006357828776041666,5083.332697550456,875.48828125,1458.49609375,2889.6478017171225,3021.6471354166665,2897.4603017171225,1490.8854166666667
30.0,2333.3326975504556,4499.836603800456,4375.9765625,2791.666030883789,5113.606770833333,394.36785380045575,2256.021499633789,2714.6803538004556,166.82942708333334,1916.666030883789,917.6432291666666,3999.9993642171225,2394.693374633789,2767.9036458333335,446.4518229166667,2985.5143229166665
31.0,1708.6588541666667,2041.6666666666667,4457.193374633789,2875.1627604166665,4478.840510050456,4301.594416300456,337.23894755045575,3193.6848958333335,1458.49609375,1541.8294270833333,1875.48828125,2999.9993642171225,3317.2194163004556,4348.143895467122,1487.4674479166667,4559.407552083333
32.0,125.16276041666667,2666.666030883789,2167.1549479166665,583.3326975504557,848.6321767171224,1796.060562133789,1032.8776041666667,775.3899892171224,875.0,2583.3326975504556,4791.9921875,2583.49609375,2897.2981770833335,570.80078125,4856.119791666667,4638.509114583333
33.0,2250.0,250.0,3957.681655883789,4333.332697550456,1717.6100413004558,4450.68359375,3190.5924479166665,801.7571767171224,4708.332697550456,208.33333333333334,749.5110829671224,1541.8294270833333,1568.0338541666667,4607.421875,4024.7389475504556,4820.149739583333
34.0,2708.49609375,4958.169937133789,5207.681655883789,375.0,2612.79296875,3433.5931142171225,4178.547541300456,583.6594899495443,1458.3333333333333,1708.3326975504558,3500.6510416666665,4666.666666666667,2773.7630208333335,4524.087905883789,983.0729166666666,967.7728017171224
35.0,1166.666030883789,4124.999364217122,5207.356135050456,874.8366038004557,4316.89453125,1565.5924479166667,3745.4427083333335,4673.501968383789,2541.666030883789,5208.333333333333,1250.48828125,4791.503270467122,643.2291666666666,4856.282552083333,5320.963541666667,690.5924479166666
36.0,3083.169937133789,2291.666030883789,3374.185562133789,2333.3326975504556,1102.8639475504558,1870.7682291666667,5048.501968383789,4479.166666666667,291.8294270833333,1250.3255208333333,4041.3405100504556,1333.169937133789,769.8567708333334,2112.4674479166665,3723.794937133789,3304.6875
37.0,1250.1627604166667,3666.666030883789,4084.3098958333335,2583.49609375,2032.3893229166667,4590.494155883789,1277.5065104166667,4772.623062133789,416.8294270833333,3208.3326975504556,2666.0149892171225,2833.49609375,4402.018229166667,901.5299479166666,106.28191630045573,1938.4765625
38.0,4791.666666666667,3041.5032704671225,4709.309895833333,4750.0,3009.6022288004556,4947.265625,2189.2903645833335,4832.845052083333,4625.0,0.16276041666666666,1333.6588541666667,1249.8366038004558,4401.041666666667,438.4765625,5104.979832967122,115.55989583333333
39.0,2291.666030883789,166.66603088378906,3790.689468383789,3083.3326975504556,2972.9811350504556,3855.95703125,3130.044937133789,2244.140625,3291.6666666666665,791.6660308837891,3333.8216145833335,3000.0,3646.646499633789,1476.8880208333333,3696.4518229166665,1097.9811350504558
40.0,3166.8294270833335,2874.9993642171225,1416.177749633789,4666.666666666667,1772.1354166666667,3449.8697916666665,622.0703125,5027.018229166667,625.0,4458.49609375,2166.177749633789,3166.6666666666665,3358.2350413004556,4652.34375,220.53972880045572,1857.095718383789
41.0,208.65885416666666,1999.9993642171223,249.18556213378906,2166.5032704671225,388.50847880045575,2546.2233225504556,1616.0481770833333,2523.4368642171225,4041.6666666666665,4875.0,4582.844416300456,708.3326975504557,1690.2669270833333,512.8574371337891,1727.3756663004558,2973.3072916666665
42.0,5083.333333333333,3291.666030883789,4667.48046875,124.83660380045573,4241.69921875,4075.0325520833335,644.8561350504557,3449.0559895833335,4708.333333333333,3374.8366038004556,374.5110829671224,4416.666666666667,4902.018229166667,4232.584635416667,1432.6171875,3388.0201975504556
43.0,4416.666030883789,541.6666666666666,1876.1393229166667,4416.666030883789,4969.074885050456,266.92644755045575,3988.6067708333335,1793.4563954671223,1291.8294270833333,2916.6666666666665,3292.48046875,291.6666666666667,1232.2591145833333,1732.2584788004558,4183.430353800456,4572.75390625
44.0,1166.6666666666667,4791.666030883789,3874.185562133789,3708.3333333333335,2817.0572916666665,191.40625,1253.4173329671223,1549.8040517171223,3541.6666666666665,958.3326975504557,2083.984375,208.49609375,4226.399739583333,3565.5924479166665,321.6145833333333,4023.4375
45.0,4416.666666666667,4249.836603800456,4499.022801717122,3041.5032704671225,1770.5071767171223,4788.0859375,3243.3268229166665,3606.2819163004556,3208.3333333333335,958.6588541666666,3082.681655883789,3958.3326975504556,1855.142593383789,2345.7024892171225,4275.87890625,4719.7265625
46.0,708.3333333333334,4791.666666666667,1917.48046875,41.66603088378906,1592.1217600504558,2590.8196767171225,1513.6712392171223,5185.221354166667,3958.49609375,3166.666030883789,3208.0071767171225,3583.3326975504556,2777.34375,5068.033854166667,101.88802083333333,1313.8020833333333
47.0,2833.3333333333335,1000.0,2083.984375,2166.6666666666665,4658.365885416667,5304.849624633789,895.3444163004557,4376.789728800456,2791.666030883789,1291.5032704671223,3791.177749633789,1041.666030883789,1193.359375,813.1504058837891,603.515625,3885.0905100504556
48.0,4916.503270467122,1916.6666666666667,0.9765625,4041.666030883789,637.6946767171224,689.7786458333334,1463.052749633789,3910.15625,5083.333333333333,3999.9993642171225,1041.8294270833333,3166.6666666666665,1062.3366038004558,1022.7858225504557,3113.1184895833335,3942.7083333333335
49.0,1458.169937133789,708.49609375,207.68165588378906,4250.162760416667,4061.0345204671225,3300.2923329671225,3828.7760416666665,2183.4303538004556,125.0,333.49609375,1125.6510416666667,1916.666030883789,4399.413426717122,1944.4986979166667,3612.1419270833335,3483.3978017171225
50.0,2416.5032704671225,1750.0,1124.185562133789,3875.0,1301.919937133789,245.60546875,2968.912124633789,5149.413426717122,1499.9993642171223,2500.0,4332.518895467122,4249.999364217122,1650.87890625,1721.1907704671223,4269.856135050456,5014.485677083333
51.0,1416.8294270833333,916.8294270833334,2499.3483225504556,4458.333333333333,1949.70703125,2633.462905883789,4522.623697916667,951.9856770833334,3874.673843383789,4125.0,291.8294270833333,2416.6666666666665,2681.9655100504556,4017.5774892171225,4357.909520467122,4636.392593383789
52.0,416.66603088378906,2708.3333333333335,5290.852228800456,250.0,1695.6380208333333,5191.731770833333,3302.2454579671225,3585.2858225504556,3083.3333333333335,499.9993642171224,4999.185562133789,2416.8294270833335,4814.778645833333,482.4212392171224,2525.7161458333335,1635.904312133789
53.0,3708.3333333333335,3458.3326975504556,3749.185562133789,4124.999364217122,5183.918635050456,2025.0651041666667,3128.7428538004556,157.71484375,3749.9993642171225,4249.999364217122,41.34051005045573,3208.6588541666665,2767.4153645833335,5190.91796875,1553.7103017171223,1394.3678538004558
54.0,1916.666030883789,416.8294270833333,459.1471354166667,2208.3326975504556,1811.3600413004558,705.2408854166666,4451.66015625,4855.468114217122,3000.0,3333.3326975504556,4957.844416300456,3000.0,187.4993642171224,4321.2890625,776.0416666666666,3862.955093383789
55.0,4500.162760416667,3208.3333333333335,1707.681655883789,4541.666030883789,742.3502604166666,4590.656916300456,652.0182291666666,729.1660308837891,2208.49609375,1666.6666666666667,2749.3483225504556,3750.0,4514.159520467122,4765.624364217122,2732.095718383789,4065.5924479166665
56.0,4208.333333333333,2083.3333333333335,2709.47265625,2499.9993642171225,2426.2688954671225,1569.6614583333333,3230.7942708333335,41.82879130045573,3374.9993642171225,5250.0,3625.48828125,916.8294270833334,224.44597880045572,5228.190104166667,603.8405100504557,115.72265625
57.0,291.8294270833333,3833.3333333333335,4459.147135416667,2541.8294270833335,3305.1751454671225,3602.5384267171225,1412.4348958333333,1296.7116038004558,1583.3333333333333,4208.332697550456,5166.9921875,83.65885416666667,4104.328791300456,2685.7096354166665,1553.2220204671223,3526.6927083333335
58.0,4250.325520833333,4624.999364217122,1209.3098958333333,4833.49609375,1313.1510416666667,1757.1608225504558,212.4017079671224,2265.6243642171225,2291.666030883789,1416.666030883789,4749.673843383789,3791.5032704671225,1440.4290517171223,3695.3125,2304.5241038004556,599.9348958333334
59.0,3375.0,4458.007176717122,42.48046875,916.6660308837891,5321.2890625,546.7116038004557,1676.919937133789,559.4075520833334,625.1627604166666,2583.3326975504556,4207.844416300456,1749.9993642171223,1058.5931142171223,4180.337905883789,3563.6393229166665,1526.2037913004558
60.0,1166.666030883789,4916.666666666667,4000.8138020833335,4291.666030883789,4548.664728800456,1551.2688954671223,5019.205093383789,1421.7116038004558,1124.9993642171223,4958.333333333333,5249.511082967122,458.33269755045575,3639.1595204671225,2022.94921875,4726.07421875,2072.4283854166665
61.0,1000.0,1875.1627604166667,792.48046875,4291.666030883789,1530.5989583333333,2023.92578125,1074.0559895833333,1414.8763020833333,3749.9993642171225,1458.3333333333333,4583.821614583333,2124.9993642171225,1815.4296875,3683.9192708333335,4443.033854166667,3654.9479166666665
62.0,1541.666030883789,3124.9993642171225,4415.689468383789,1208.169937133789,4226.724624633789,3775.5533854166665,3086.587905883789,4634.764989217122,708.49609375,2666.666030883789,1042.3177083333333,1583.169937133789,4517.08984375,1517.0892079671223,3238.28125,228.5149892171224
63.0,875.0,4875.0,4499.185562133789,2208.3326975504556,937.0110829671224,4962.076187133789,2284.8307291666665,1772.4603017171223,208.33333333333334,4041.5032704671225,1624.185562133789,499.83660380045575,1854.1666666666667,2862.79296875,1567.0572916666667,4695.962905883789
64.0,2625.0,1291.666030883789,1165.689468383789,416.5032704671224,2924.3157704671225,1756.998062133789,3234.2122395833335,1814.1276041666667,1750.1627604166667,1166.9921875,666.1777496337891,125.16276041666667,3805.826187133789,1265.298843383789,1565.7545725504558,2108.2356770833335
65.0,3833.3333333333335,708.6588541666666,1499.0228017171223,4458.169937133789,4449.381510416667,2028.4830729166667,1018.7168121337891,1083.333969116211,5125.0,2250.0,4792.317708333333,958.3326975504557,3098.794937133789,3605.630874633789,3811.8483225504556,4782.2265625
66.0,4333.333333333333,499.9993642171224,2000.6510416666667,3541.6666666666665,2638.833999633789,2018.8795725504558,3788.2486979166665,5120.279947916667,2374.9993642171225,4249.999364217122,1416.177749633789,3000.0,5145.833333333333,853.1901041666666,5261.555353800456,443.6848958333333
67.0,2916.666030883789,2750.0,541.0149892171224,1708.49609375,2395.0188954671225,464.51759338378906,2203.4505208333335,1516.275405883789,4916.503270467122,500.1627604166667,3625.6510416666665,666.6660308837891,3393.06640625,1987.4674479166667,3013.833999633789,4733.723322550456
68.0,1791.666030883789,3916.9921875,4832.356135050456,166.5032704671224,3344.400405883789,4337.727228800456,3678.5475413004556,1941.080093383789,4624.999364217122,4416.666666666667,4667.48046875,2500.1627604166665,766.4381663004557,2554.849624633789,4937.662760416667,1641.11328125
69.0,2791.6666666666665,3666.666030883789,2416.0149892171225,1958.169937133789,4217.284520467122,282.0638020833333,1479.6549479166667,1870.60546875,1333.3333333333333,666.6666666666666,1083.0071767171223,3625.1627604166665,806.6399892171224,5272.298177083333,4691.242853800456,2323.0794270833335
70.0,5249.836603800456,3583.3326975504556,1334.3098958333333,5083.333333333333,3137.2063954671225,4315.755208333333,2800.6178538004556,2293.9446767171225,4375.0,2749.8366038004556,1124.5110829671223,3208.3333333333335,4101.724624633789,2725.7486979166665,443.84765625,613.1184895833334
71.0,4708.333333333333,2125.0,501.1393229166667,3500.1627604166665,3606.4453125,3931.4772288004556,4337.401707967122,1635.2532704671223,3750.0,250.16276041666666,124.51108296712239,2458.3326975504556,1941.568374633789,1765.9498850504558,4429.198582967122,5312.825520833333
72.0,250.0,3416.666030883789,3707.5188954671225,1208.3333333333333,897.1354166666666,4878.254572550456,1283.8541666666667,2356.4446767171225,2666.6666666666665,500.0,2209.1471354166665,4333.49609375,2812.173843383789,3137.0436350504556,2899.90234375,4845.377604166667
73.0,3875.0,2666.666030883789,1249.185562133789,4749.999364217122,2492.67578125,3631.998062133789,3766.4381663004556,2809.8951975504556,2833.0071767171225,2624.9993642171225,4292.317708333333,2000.1627604166667,2347.818374633789,5307.291030883789,4684.407552083333,2108.88671875
74.0,166.66666666666666,3333.3326975504556,124.18556213378906,1458.49609375,884.9277496337891,2638.833999633789,3356.93359375,3208.822250366211,5125.0,3749.9993642171225,4958.821614583333,2208.3333333333335,5108.723958333333,3602.5390625,4731.119791666667,2050.7806142171225
75.0,833.6588541666666,583.3333333333334,1125.9765625,5291.666666666667,4027.1809895833335,3939.453125,752.9290517171224,4453.450520833333,583.3333333333334,166.66603088378906,4874.511082967122,3875.1627604166665,854.1666666666666,646.8092600504557,2696.77734375,1556.9655100504558
76.0,4125.0,4416.503270467122,3583.0071767171225,3999.9993642171225,2771.6471354166665,619.4661458333334,3286.4583333333335,3899.90234375,4791.666030883789,958.49609375,542.1549479166666,1958.169937133789,3684.8958333333335,2138.0201975504556,1847.4928538004558,2764.9739583333335
77.0,1208.49609375,5083.332697550456,3749.185562133789,750.1627604166666,1302.7337392171223,672.1998850504557,4654.622395833333,1772.9485829671223,4125.162760416667,625.0,4416.177749633789,2583.6588541666665,2526.0416666666665,2694.82421875,4229.329427083333,768.2291666666666
78.0,1583.3333333333333,4166.503270467122,415.68946838378906,291.66603088378906,50.94337463378906,5198.2421875,645.0188954671224,3295.083999633789,3166.666030883789,3125.1627604166665,249.67384338378906,4166.340510050456,307.1282704671224,3897.4609375,815.4290517171224,4489.74609375
79.0,0.16276041666666666,2375.0,3957.3561350504556,458.33269755045575,3945.80078125,435.0579579671224,2824.70703125,1539.2252604166667,1875.1627604166667,708.1699371337891,1625.6510416666667,2416.5032704671225,2060.8717600504556,184.08203125,1569.3359375,1136.7181142171223
80.0,3250.0,3749.9993642171225,4416.177749633789,4916.503270467122,2768.0657704671225,3556.314468383789,1920.083999633789,4553.059260050456,2041.6666666666667,4875.0,1500.8138020833333,1291.8294270833333,5274.250666300456,1724.1204579671223,2237.79296875,2186.8489583333335
81.0,3791.6666666666665,5291.666030883789,3208.984375,708.1699371337891,3730.95703125,163.24869791666666,5008.137385050456,1732.095718383789,1708.169937133789,3666.8294270833335,1541.177749633789,750.3255208333334,2936.197280883789,4571.2890625,391.92644755045575,1445.962905883789
82.0,4999.836603800456,4916.9921875,2707.3561350504556,3500.1627604166665,4840.819676717122,6.9980621337890625,4808.430353800456,4191.080729166667,4416.666030883789,583.49609375,708.6588541666666,2625.0,555.9889475504557,2974.1204579671225,4517.08984375,3860.3515625
83.0,3249.9993642171225,83.33269755045573,4834.309895833333,4166.666030883789,1322.75390625,4235.514322916667,3434.5696767171225,1958.333969116211,3749.9993642171225,1666.8294270833333,4292.48046875,4166.666666666667,1607.5846354166667,4935.384114583333,601.5618642171224,4573.73046875
84.0,2583.3333333333335,4500.0,2916.0149892171225,5166.829427083333,5151.041666666667,4314.94140625,669.4329579671224,1589.029312133789,3791.6666666666665,1666.8294270833333,3790.689468383789,3708.49609375,2394.3684895833335,979.1666666666666,1761.2298329671223,4484.049479166667
85.0,3541.6666666666665,2750.0,3875.6510416666665,999.8366038004557,2479.3294270833335,744.7916666666666,380.3704579671224,3642.4147288004556,416.9921875,2874.9993642171225,500.6510416666667,4125.162760416667,4184.5703125,3570.3125,3638.9967600504556,4514.811197916667
86.0,1416.6666666666667,208.65885416666666,2291.0149892171225,3249.9993642171225,2469.400405883789,1035.64453125,404.4596354166667,1648.599624633789,375.0,1625.0,208.984375,3249.9993642171225,4640.787124633789,2569.1731770833335,1479.00390625,940.1035308837891
87.0,2166.666030883789,4250.0,5208.984375,4791.666030883789,4133.462905883789,864.4205729166666,4186.685562133789,1788.8997395833333,1916.666030883789,3166.8294270833335,457.84441630045575,416.6666666666667,2139.9733225504556,3563.1510416666665,1893.06640625,1406.5755208333333
88.0,5041.829427083333,3458.3326975504556,2332.681655883789,625.3255208333334,1678.384780883789,3352.212905883789,4548.664728800456,1294.2701975504558,791.9921875,2666.666030883789,1791.3405100504558,4041.6666666666665,4352.212905883789,4816.080093383789,778.6458333333334,4946.126302083333
89.0,1500.0,2375.0,832.5188954671224,1958.3326975504558,1731.93359375,4888.833999633789,128.9056142171224,863.76953125,1124.9993642171223,2083.3326975504556,5332.844416300456,4958.332697550456,475.5859375,4234.86328125,2470.865249633789,21.972020467122395
90.0,666.6666666666666,1666.6666666666667,1750.9765625,416.66603088378906,2601.724624633789,2246.9075520833335,2592.7728017171225,4599.283854166667,3916.6666666666665,1291.8294270833333,582.8444163004557,2374.9993642171225,2481.4453125,2987.9557291666665,2398.7630208333335,5238.280614217122
91.0,3791.666030883789,3416.6666666666665,4415.852228800456,83.33269755045573,3299.966812133789,257.16082255045575,3941.0807291666665,1266.275405883789,708.3333333333334,291.5032704671224,1749.3483225504558,3166.8294270833335,2598.1438954671225,2858.88671875,3309.08203125,1360.5143229166667
92.0,1041.6666666666667,4083.3333333333335,4624.022801717122,3208.49609375,3197.1028645833335,3943.6848958333335,2733.88671875,4834.146499633789,2916.6666666666665,3874.9993642171225,958.1699371337891,1541.8294270833333,3100.9108225504556,2856.607437133789,4483.235677083333,2551.7571767171225
93.0,958.49609375,249.9993642171224,2082.5188954671225,1750.1627604166667,1891.4381663004558,3856.93359375,3836.099624633789,6.6725413004557295,5250.0,1125.0,3458.6588541666665,2250.1627604166665,5190.103530883789,1229.1666666666667,4094.7259267171225,16.763687133789062
94.0,4833.333333333333,1125.0,4333.984375,2124.8366038004556,4895.01953125,4203.776041666667,2995.1171875,3606.1197916666665,1458.6588541666667,41.666666666666664,3249.673843383789,5249.999364217122,976.07421875,2403.9713541666665,3681.314468383789,3138.671875
95.0,2083.3326975504556,1500.0,1042.8059895833333,2583.3333333333335,843.7493642171224,1172.6881663004558,3887.6946767171225,2935.3841145833335,3208.169937133789,458.49609375,1749.3483225504558,791.8294270833334,2817.5455729166665,4264.485041300456,2063.4759267171225,4479.979832967122
96.0,1666.6666666666667,2166.666030883789,1667.48046875,3583.169937133789,1051.431655883789,3094.0748850504556,4894.693374633789,1498.53515625,4499.999364217122,541.6660308837891,2957.8444163004556,916.8294270833334,3734.2122395833335,3605.3059895833335,3643.8802083333335,2885.2532704671225
97.0,3791.6666666666665,5000.0,3499.185562133789,2083.49609375,3486.1653645833335,3644.205093383789,1659.9934895833333,2412.59765625,3583.49609375,5000.162760416667,4917.317708333333,3791.666030883789,4812.011082967122,1357.2584788004558,2721.1907704671225,1403.3203125
98.0,2749.9993642171225,4458.333333333333,3332.681655883789,5333.007176717122,1479.8177083333333,1972.1673329671223,4038.0859375,3362.1419270833335,3541.666030883789,1958.49609375,3208.8216145833335,166.66666666666666,3266.2760416666665,1264.6478017171223,2679.1985829671225,5227.376302083333
99.0,1958.49609375,624.9993642171224,292.6432291666667,2458.3326975504556,2559.732437133789,1705.4036458333333,2783.0403645833335,3683.4309895833335,1083.3326975504558,3999.9993642171225,957.8444163004557,41.5032704671224,107.25911458333333,3762.0436350504556,1065.5924479166667,3028.482437133789
100.0,83.49609375,3250.0,667.48046875,2000.0,2201.66015625,674.8040517171224,2815.2669270833335,3817.7083333333335,4958.332697550456,5166.666666666667,4874.348322550456,1749.9993642171223,3430.6634267171225,817.0572916666666,4983.072280883789,819.6614583333334
101.0,125.0,2416.666030883789,3083.984375,1750.1627604166667,3676.5944163004556,3973.794937133789,1359.375,4333.495457967122,666.8294270833334,4958.49609375,1208.984375,1458.3333333333333,1975.259780883789,476.8880208333333,4141.438166300456,718.0983225504557
102.0,3291.5032704671225,2874.9993642171225,2584.47265625,4916.666666666667,3358.0729166666665,17.90301005045573,3622.8841145833335,2368.0013020833335,2916.6666666666665,1916.666030883789,4541.9921875,4833.333333333333,1856.9329579671223,2519.693374633789,4863.444010416667,2350.5853017171225
103.0,5083.333333333333,1541.6666666666667,5292.317708333333,4833.333333333333,3854.6549479166665,579.1015625,4243.65234375,1978.189468383789,3458.49609375,2249.8366038004556,832.8444163004557,1833.3326975504558,3148.2741038004556,4471.190770467122,3985.0260416666665,4777.668635050456
104.0,2666.666030883789,2958.49609375,874.5110829671224,999.9993642171224,3051.2688954671225,4504.556655883789,1528.3203125,4481.444676717122,5249.999364217122,2208.3326975504556,625.48828125,3166.8294270833335,4984.700520833333,3430.5006663004556,3063.8014475504556,5188.638687133789
105.0,875.0,3166.6666666666665,667.48046875,4416.666030883789,1656.4127604166667,94.72592671712239,1355.95703125,917.9681142171224,2833.49609375,2499.8366038004556,5041.340510050456,1500.0,4892.577489217122,4478.352228800456,5189.615249633789,1135.5787913004558
106.0,2666.6666666666665,2083.3333333333335,4957.518895467122,4416.666030883789,4347.981135050456,856.2825520833334,4088.541030883789,587.4017079671224,3833.3326975504556,3333.3333333333335,4832.681655883789,1916.666030883789,4229.328791300456,606.6074371337891,179.03582255045572,2097.330093383789
107.0,2375.0,1250.0,2332.5188954671225,1208.3333333333333,2687.8255208333335,3278.9713541666665,3671.060562133789,763.9967600504557,3666.666030883789,4958.49609375,3249.5110829671225,916.5032704671224,2401.041030883789,3444.1731770833335,2695.3125,18.229166666666668
108.0,4875.162760416667,1124.9993642171223,1959.47265625,5125.162760416667,4517.903010050456,5170.083999633789,1199.21875,4974.446614583333,1249.8366038004558,4541.829427083333,542.3177083333334,1625.0,393.22853088378906,1112.6302083333333,5101.561864217122,4944.823582967122
109.0,2000.1627604166667,666.6660308837891,4750.813802083333,4666.9921875,2950.3580729166665,3075.1953125,2518.0657704671225,4305.826187133789,3333.3326975504556,166.82942708333334,916.0149892171224,291.8294270833333,3181.802749633789,4483.072916666667,1266.7643229166667,512.2063954671224
110.0,4583.332697550456,5083.49609375,2124.185562133789,916.5032704671224,1114.2578125,1817.7083333333333,1442.7083333333333,2331.8684895833335,1333.3326975504558,874.9993642171224,499.34832255045575,5333.332697550456,4732.584635416667,3398.2741038004556,1733.88671875,2822.4283854166665
111.0,2708.3333333333335,0.0006357828776041666,1457.5188954671223,1250.0,358.5611979166667,4107.584635416667,3335.7741038004556,4465.494155883789,4208.333333333333,4249.999364217122,249.5110829671224,3874.8366038004556,2023.599624633789,435.87176005045575,3220.2142079671225,5273.92578125
112.0,41.666666666666664,1625.0,1249.3483225504558,4250.162760416667,4060.708999633789,3038.4114583333335,3701.8229166666665,2229.0032704671225,3625.0,4500.0,624.6738433837891,3999.8366038004556,2311.3606770833335,3054.1985829671225,5015.136082967122,1153.3196767171223
113.0,208.33333333333334,833.49609375,3374.185562133789,166.82942708333334,1532.8776041666667,2869.3033854166665,1569.1731770833333,4436.197916666667,3708.6588541666665,2124.9993642171225,1417.1549479166667,1958.3333333333333,235.51432291666666,2069.1731770833335,3064.4524892171225,645.8333333333334
114.0,666.6666666666666,4958.333333333333,4832.518895467122,5000.162760416667,2074.0559895833335,1696.2890625,4480.95703125,3706.54296875,5208.332697550456,1333.3326975504558,4291.014989217122,4958.169937133789,641.2754058837891,4312.173843383789,3896.9720204671225,636.3925933837891
115.0,1583.49609375,1708.49609375,1875.9765625,2250.1627604166665,3305.9889475504556,2022.4609375,2921.3860829671225,4421.223322550456,1000.0,1500.0,4000.6510416666665,3916.6666666666665,1895.6705729166667,2106.607437133789,4303.873062133789,1597.330093383789
116.0,4208.333333333333,3291.8294270833335,1876.1393229166667,291.6666666666667,1021.8098958333334,5053.547541300456,1920.7350413004558,4110.514322916667,2875.0,3916.666030883789,1832.8444163004558,3291.6666666666665,1525.552749633789,4138.508478800456,888.1829579671224,310.2213541666667
117.0,3458.3326975504556,4916.503270467122,1334.1471354166667,3416.6666666666665,1391.9264475504558,5045.246760050456,490.234375,3265.7877604166665,3041.8294270833335,4208.332697550456,82.84441630045573,666.8294270833334,2732.421875,1070.80078125,1352.3756663004558,3069.498062133789
118.0,2916.5032704671225,2291.6666666666665,4375.651041666667,291.8294270833333,3491.5364583333335,5283.365885416667,1851.724624633789,611.81640625,3458.3333333333335,4249.999364217122,82.84441630045573,666.8294270833334,515.4616038004557,232.91015625,2641.9270833333335,4386.392593383789
119.0,708.3326975504557,3791.6666666666665,4000.8138020833335,708.3326975504557,2529.9479166666665,3733.5611979166665,2139.4850413004556,1458.0078125,1000.0,833.3326975504557,249.67384338378906,583.3326975504557,2940.2669270833335,3809.5703125,1734.2122395833333,2260.416030883789
120.0,3124.9993642171225,2208.3333333333335,4624.348322550456,3166.8294270833335,3023.6002604166665,2566.40625,2538.8997395833335,659.1796875,833.3333333333334,1500.1627604166667,1249.5110829671223,4000.0,481.9329579671224,60.38347880045573,29.947916666666668,3226.236343383789
121.0,3208.3326975504556,4291.666030883789,374.18556213378906,1375.1627604166667,186.68556213378906,4039.0625,4202.311197916667,4438.313166300456,4374.999364217122,4125.162760416667,4541.014989217122,2500.0,22.134780883789062,3404.78515625,5109.537760416667,4820.311864217122
122.0,3458.3326975504556,2625.0,3709.3098958333335,2666.6666666666665,467.12176005045575,1631.3470204671223,3318.84765625,3105.3053538004556,1333.3333333333333,3666.6666666666665,2041.5032704671223,3583.169937133789,3818.5221354166665,2110.1888020833335,1768.3919270833333,104.81770833333333
123.0,208.49609375,4708.333333333333,3084.3098958333335,2708.49609375,676.1061350504557,4804.035822550456,5185.383478800456,1668.619155883789,3749.673843383789,2500.0,4666.340510050456,3541.6666666666665,1567.0572916666667,2854.166030883789,3520.1822916666665,1636.0670725504558
124.0,333.3333333333333,2833.3326975504556,4917.48046875,2666.8294270833335,2098.1438954671225,1353.189468383789,2620.7682291666665,4078.61328125,4583.333333333333,3208.3333333333335,1333.984375,3208.3326975504556,1062.3372395833333,1564.7780100504558,737.4674479166666,264.48504130045575
125.0,3083.3326975504556,916.6666666666666,957.6816558837891,4249.999364217122,395.66993713378906,3136.0670725504556,4838.215510050456,2390.298843383789,4458.333333333333,3833.3333333333335,1916.6666666666667,4375.162760416667,224.93489583333334,3012.857437133789,278.1575520833333,4517.903645833333
126.0,1999.9993642171223,3958.3333333333335,792.48046875,708.49609375,4193.522135416667,4628.091812133789,261.2298329671224,983.7233225504557,3874.9993642171225,4458.332697550456,124.67384338378906,1916.5032704671223,1983.5611979166667,3637.369155883789,5228.026707967122,5264.16015625
127.0,2166.8294270833335,499.83660380045575,1791.0149892171223,1750.1627604166667,659.5052083333334,4466.470718383789,2105.6315104166665,2095.2142079671225,2083.3326975504556,3541.8294270833335,2083.6588541666665,5041.503270467122,5097.818374633789,3357.91015625,3816.4056142171225,3176.7571767171225
128.0,2583.3333333333335,4708.169937133789,4875.651041666667,3624.8366038004556,4696.940104166667,1183.4303538004558,4194.3359375,3791.3411458333335,4874.836603800456,4666.829427083333,4750.48828125,2583.49609375,3226.236343383789,2357.2584788004556,4973.469416300456,1781.25
129.0,5249.999364217122,2624.8366038004556,3499.5110829671225,0.0006357828776041666,4100.585301717122,693.1966145833334,3539.3880208333335,4674.641291300456,3791.8294270833335,4124.999364217122,375.48828125,41.9921875,5225.748697916667,1183.5931142171223,1386.880874633789,1560.220718383789
130.0,3250.0,1541.9921875,3750.48828125,4208.49609375,5063.150405883789,4664.225260416667,4534.830729166667,2019.04296875,41.666666666666664,2374.9993642171225,3958.49609375,3958.6588541666665,5269.205729166667,5011.718114217122,1474.4459788004558,4387.044270833333
131.0,4833.169937133789,1124.8366038004558,1334.1471354166667,3791.6666666666665,967.1217600504557,839.1920725504557,3390.1360829671225,2937.01171875,4583.333333333333,4875.0,583.984375,1500.1627604166667,1234.5377604166667,2985.0260416666665,393.2291666666667,4519.205093383789
132.0,4791.666666666667,83.65885416666667,1708.8216145833333,2625.0,552.0826975504557,5054.198582967122,5143.228530883789,5249.835968017578,958.49609375,708.3333333333334,2666.9921875,2833.49609375,1850.0970204671223,1479.3294270833333,3020.669937133789,5156.412760416667
133.0,2625.0,2416.6666666666665,2125.8138020833335,2958.3333333333335,1693.6848958333333,4310.708999633789,5163.0859375,3663.7369791666665,4291.503270467122,3333.6588541666665,458.16993713378906,3000.0,5020.345052083333,3310.05859375,2261.880874633789,1985.83984375
134.0,291.8294270833333,4749.999364217122,792.3177083333334,2125.3255208333335,2187.98828125,3530.76171875,5047.199885050456,3901.2044270833335,2958.3333333333335,2708.6588541666665,4458.007176717122,1541.8294270833333,899.9017079671224,971.0280100504557,3111.1653645833335,1482.9095204671223
135.0,250.32552083333334,5208.333333333333,666.0149892171224,3166.8294270833335,4639.810562133789,4962.401707967122,2219.0748850504556,683.10546875,4250.162760416667,1750.0,3749.8366038004556,2583.3326975504556,4974.445978800456,5013.182957967122,5061.685562133789,2389.3229166666665
136.0,4625.162760416667,1500.0,625.9765625,541.6666666666666,2798.990249633789,4133.788426717122,355.6315104166667,3154.9479166666665,2541.5032704671225,1750.0,4458.007176717122,4249.836603800456,2526.6927083333335,1976.236343383789,3107.7467600504556,2490.0716145833335
137.0,3041.6666666666665,1208.49609375,709.3098958333334,1750.0,4179.198582967122,1982.421875,1180.5006663004558,3250.650405883789,3291.666030883789,5249.999364217122,1666.5032704671223,4708.333333333333,1981.2825520833333,1191.4056142171223,4972.818374633789,594.5631663004557
138.0,1291.6666666666667,416.5032704671224,5291.177749633789,5333.332697550456,3351.3991038004556,1275.5533854166667,4081.0546875,5242.1875,1875.1627604166667,2250.0,2791.3405100504556,3500.0,3558.7565104166665,1108.0729166666667,4678.384780883789,4648.111979166667
139.0,4125.0,3333.3326975504556,3709.1471354166665,83.33333333333333,187.0110829671224,3711.7506663004556,2298.8274892171225,939.7780100504557,125.0,2958.49609375,5250.651041666667,4916.666030883789,188.15040588378906,1571.1263020833333,933.1048329671224,3071.2884267171225
140.0,2166.666030883789,4999.836603800456,916.0149892171224,1166.666030883789,4033.8541666666665,1465.1686350504558,3765.6243642171225,563.3138020833334,3083.3326975504556,291.6666666666667,1374.8366038004558,2750.0,4140.136082967122,2192.87109375,1815.7545725504558,3226.8873850504556
141.0,3791.666030883789,2750.0,1750.8138020833333,2916.666030883789,240.234375,3179.5241038004556,3393.5540517171225,709.9603017171224,458.49609375,3291.9921875,4624.673843383789,2333.6588541666665,1192.2200520833333,396.4837392171224,728.6777496337891,1511.0670725504558
142.0,2166.666030883789,3041.666030883789,707.5188954671224,1291.666030883789,930.9889475504557,3477.5384267171225,3705.2408854166665,4494.791666666667,208.33333333333334,2416.8294270833335,3041.5032704671225,4333.169937133789,4021.646499633789,5143.880208333333,904.6223958333334,4568.196614583333
143.0,500.0,1958.3333333333333,4333.821614583333,1958.3333333333333,4145.669937133789,4406.412760416667,1761.0670725504558,4398.600260416667,1375.0,1541.3405100504558,2666.5032704671225,3083.169937133789,3017.2526041666665,4987.955729166667,1070.6380208333333,57.291666666666664
144.0,4208.332697550456,4916.666030883789,2249.3483225504556,1291.666030883789,2777.34375,4453.938802083333,2448.4049479166665,1732.9095204671223,1583.3333333333333,3708.3333333333335,1500.48828125,1666.666030883789,3817.87109375,4721.679051717122,4436.360041300456,4527.017593383789
145.0,0.16276041666666666,1625.0,374.5110829671224,4041.666030883789,3034.1796875,282.8776041666667,2186.3600413004556,2489.5833333333335,208.33333333333334,2083.49609375,458.6588541666667,2916.6666666666665,5068.522135416667,4773.600260416667,5190.754572550456,3532.0638020833335
146.0,4249.999364217122,3375.0,1959.1471354166667,1833.3333333333333,70.3125,1809.4069163004558,3321.4518229166665,3459.3092600504556,1708.3326975504558,3250.1627604166665,4166.340510050456,4416.666030883789,5019.367853800456,1808.9192708333333,1846.841812133789,4761.229832967122
147.0,833.3333333333334,1625.1627604166667,41.17774963378906,83.65885416666667,2226.3991038004556,2943.5221354166665,2497.8841145833335,1134.7649892171223,2458.3326975504556,4125.0,5208.821614583333,2750.0,3357.9095204671225,4392.089207967122,1072.1028645833333,311.84832255045575
148.0,3916.666030883789,2625.0,1207.5188954671223,2000.1627604166667,2687.4993642171225,2997.0703125,1799.3157704671223,65.10353088378906,5333.332697550456,4500.0,1625.8138020833333,2708.3326975504556,229.9798329671224,1637.5319163004558,3516.9264475504556,2761.8815104166665
149.0,1791.6666666666667,124.99936421712239,3541.0149892171225,3958.49609375,4283.854166666667,3743.4895833333335,1308.267593383789,1064.2903645833333,1250.0,1208.49609375,4167.317708333333,416.66603088378906,2776.6927083333335,4099.120457967122,3982.4212392171225,565.7552083333334
150.0,750.0,3041.666030883789,4834.147135416667,2999.9993642171225,4697.916666666667,5319.82421875,1773.1119791666667,749.8359680175781,1666.6666666666667,833.3333333333334,916.1777496337891,791.6660308837891,4024.4140625,5022.134780883789,563.6393229166666,3634.927749633789
151.0,4208.49609375,1291.666030883789,4332.518895467122,5041.666030883789,4806.639989217122,3101.724624633789,1247.2330729166667,2797.037124633789,4041.8294270833335,2333.3333333333335,1457.681655883789,2125.0,4769.856770833333,644.2057291666666,2387.2063954671225,1234.5377604166667
152.0,500.0,4291.666666666667,1541.0149892171223,4499.999364217122,813.8014475504557,2051.7571767171225,78.125,766.1126454671224,5000.0,4291.666030883789,1707.8444163004558,833.3326975504557,4558.59375,3053.5475413004556,4610.83984375,5016.276041666667
153.0,1749.9993642171223,4541.666030883789,2209.3098958333335,2416.6666666666665,2568.84765625,79.26432291666667,1196.6145833333333,4565.591812133789,1916.666030883789,1708.3333333333333,1917.48046875,1833.3326975504558,3557.291030883789,1861.4908854166667,520.9954579671224,2275.7155100504556
154.0,4625.0,4624.999364217122,3957.3561350504556,2791.6666666666665,3758.1373850504556,3157.71484375,2311.8483225504556,4905.76171875,1541.666030883789,1791.6666666666667,250.65104166666666,1125.1627604166667,1973.6321767171223,1607.0963541666667,1434.2447916666667,1448.5677083333333
155.0,2541.666030883789,83.49609375,249.34832255045572,2041.8294270833333,3611.328125,2434.244155883789,1719.400405883789,1293.2936350504558,4791.666030883789,5208.169937133789,1082.5188954671223,3499.9993642171225,2478.0267079671225,3308.9192708333335,986.81640625,3219.7259267171225
156.0,1833.3333333333333,1875.0,5082.518895467122,4625.0,2856.4453125,4099.120457967122,1247.7213541666667,717.2845204671224,1583.3333333333333,625.0,1915.5267079671223,1083.3326975504558,1766.9270833333333,1607.7473958333333,2613.28125,5103.514989217122
157.0,1749.9993642171223,4125.325520833333,334.3098958333333,1208.3333333333333,147.62369791666666,913.57421875,4533.203125,5314.778010050456,4833.332697550456,3833.3333333333335,1500.6510416666667,1291.666030883789,62.0110829671224,2096.1907704671225,4316.243489583333,3404.6217600504556
158.0,1624.9993642171223,2833.3333333333335,2542.6432291666665,1583.6588541666667,4048.8274892171225,1451.4973958333333,4267.740249633789,2355.1432291666665,4833.332697550456,5333.332697550456,4375.651041666667,2083.49609375,4860.188802083333,2859.5377604166665,2482.7467600504556,475.74806213378906
159.0,1833.49609375,3916.5032704671225,707.5188954671224,3374.8366038004556,2802.7337392171225,3653.3203125,2356.93359375,4625.162124633789,1041.6666666666667,2999.9993642171225,2333.984375,1291.666030883789,1059.0813954671223,1894.3684895833333,4522.4609375,114.74609375
160.0,833.49609375,2499.9993642171225,3874.0228017171225,2749.8366038004556,1431.6399892171223,1023.1119791666666,2831.0546875,4047.3626454671225,2666.6666666666665,4124.999364217122,2167.3177083333335,1500.0,3019.8567708333335,394.6940104166667,4446.451822916667,3640.6243642171225
161.0,5083.169937133789,1791.6666666666667,3625.8138020833335,2041.9921875,813.1510416666666,3176.7571767171225,1963.052749633789,601.3991038004557,250.16276041666666,1166.8294270833333,1291.0149892171223,1791.6666666666667,4107.258478800456,2988.4440104166665,597.4928538004557,5193.847020467122
162.0,41.829427083333336,4999.836603800456,2501.1393229166665,3958.3333333333335,5111.979166666667,4037.59765625,4695.963541666667,3857.095718383789,3416.6666666666665,3708.49609375,3207.681655883789,3583.169937133789,4610.514322916667,3430.5006663004556,3479.654312133789,1975.09765625
163.0,2458.49609375,3374.9993642171225,500.9765625,4124.999364217122,3340.8196767171225,842.2845204671224,2771.3216145833335,3050.2923329671225,3874.9993642171225,5041.666666666667,957.8444163004557,4166.666030883789,360.1888020833333,5018.391291300456,1898.7623850504558,3925.2923329671225
164.0,791.8294270833334,2208.49609375,3207.3561350504556,83.49609375,4402.994791666667,2226.5618642171225,114.90885416666667,4331.868489583333,1041.6666666666667,916.6660308837891,4374.348322550456,2458.6588541666665,187.98828125,3982.9095204671225,2529.4596354166665,4470.051447550456
165.0,4000.0,2083.49609375,2209.3098958333335,541.6666666666666,856.6080729166666,2389.9733225504556,2456.2174479166665,3324.8697916666665,3624.8366038004556,4374.999364217122,2832.681655883789,3416.666030883789,2392.08984375,1141.6009267171223,4678.547541300456,1271.484375
166.0,4333.332697550456,1583.8216145833333,4999.185562133789,625.1627604166666,106.77083333333333,2247.0703125,1550.1295725504558,2940.7545725504556,41.829427083333336,4083.3333333333335,624.3483225504557,625.0,1103.0267079671223,320.9635416666667,2024.2513020833333,428.8736979166667
167.0,4874.836603800456,1541.5032704671223,792.48046875,458.49609375,3118.0013020833335,5201.009114583333,2941.0807291666665,1768.8795725504558,4166.503270467122,1083.49609375,1249.3483225504558,708.3326975504557,4722.981135050456,2057.6165517171225,1899.576187133789,1483.0729166666667
168.0,4874.999364217122,375.0,709.3098958333334,3458.49609375,4052.0826975504556,652.5065104166666,5191.243489583333,166.66539510091147,1166.8294270833333,458.33269755045575,1125.6510416666667,2125.0,100.42254130045573,22.948582967122395,397.94921875,1073.0794270833333
169.0,2208.169937133789,333.16993713378906,707.5188954671224,374.83660380045575,3140.298843383789,1148.2747395833333,4544.107437133789,5005.533218383789,1458.3333333333333,1958.3326975504558,1417.48046875,3458.3326975504556,4519.694010416667,4728.515625,3529.9479166666665,1224.283218383789
170.0,2208.3326975504556,333.49609375,1041.0149892171223,2833.49609375,3728.0267079671225,699.0559895833334,5161.1328125,601.5618642171224,4499.999364217122,3333.3326975504556,2917.48046875,3249.8366038004556,2106.607437133789,154.78515625,2151.85546875,3360.513687133789
171.0,2791.6666666666665,3708.3333333333335,5249.022801717122,5291.666030883789,4863.118489583333,1496.2565104166667,738.28125,3767.7408854166665,791.8294270833334,833.49609375,5041.014989217122,1041.8294270833333,1736.328125,4444.986979166667,1771.1588541666667,1392.2526041666667
172.0,500.0,1000.0,2249.185562133789,4833.332697550456,5173.664728800456,301.10613505045575,1311.685562133789,1507.8118642171223,3208.3333333333335,2958.3326975504556,5208.007176717122,666.6660308837891,3984.86328125,4102.050145467122,2982.583999633789,4408.040364583333
173.0,1750.1627604166667,1916.8294270833333,167.96875,3083.3333333333335,1486.328125,1356.6080729166667,5032.2265625,2668.130874633789,4000.0,2583.3333333333335,416.0149892171224,3958.3326975504556,2353.5149892171225,2559.2447916666665,2136.5553538004556,1863.28125
174.0,4583.332697550456,4625.162760416667,1917.8059895833333,416.6666666666667,2353.0267079671225,3858.88671875,2123.046875,4114.908854166667,4625.0,2833.3326975504556,1999.673843383789,2624.8366038004556,2108.560562133789,4982.747395833333,1595.2142079671223,1104.9798329671223
175.0,4041.5032704671225,2375.0,3834.3098958333335,3749.8366038004556,2607.421875,3913.0859375,4407.2265625,5183.59375,249.9993642171224,2416.6666666666665,334.3098958333333,2083.49609375,3730.95703125,2429.6868642171225,4351.073582967122,1070.8001454671223
176.0,3083.3333333333335,833.49609375,1582.5188954671223,2208.49609375,2049.8040517171225,1132.486343383789,398.4375,3190.91796875,2333.169937133789,4708.169937133789,4666.014989217122,5125.162760416667,723.1438954671224,4182.779312133789,641.7643229166666,1942.2200520833333
177.0,1416.6666666666667,333.3333333333333,126.13932291666667,4791.503270467122,1134.7649892171223,3097.818374633789,3808.9186350504556,5041.341145833333,124.99936421712239,3750.1627604166665,874.3483225504557,2000.1627604166667,4600.259780883789,3102.2135416666665,2435.220718383789,3052.0826975504556
178.0,2083.3333333333335,3333.3326975504556,4707.356135050456,3500.0,3763.9967600504556,607.421875,5122.233072916667,4548.176447550456,3125.1627604166665,1624.9993642171223,3917.3177083333335,3875.1627604166665,4603.515625,4312.336603800456,1137.2063954671223,1816.5690104166667
179.0,791.8294270833334,2708.3333333333335,542.6432291666666,2375.1627604166665,3229.4915517171225,4117.350260416667,3911.9466145833335,4064.94140625,1833.3326975504558,2208.3333333333335,4542.154947916667,2333.3326975504556,2357.7467600504556,2113.4440104166665,1110.83984375,139.81119791666666
180.0,3666.6666666666665,1208.3326975504558,1082.3561350504558,4916.666666666667,3679.1985829671225,2546.060562133789,2404.296875,2601.2369791666665,3666.6666666666665,2499.8366038004556,2750.8138020833335,3208.49609375,3847.330093383789,4444.661458333333,1437.9876454671223,3732.2584788004556
181.0,916.6666666666666,291.66603088378906,4791.014989217122,374.83660380045575,2950.8463541666665,4259.276707967122,3186.3600413004556,2173.3392079671225,3208.3326975504556,4208.333333333333,541.0149892171224,2458.3326975504556,1360.0260416666667,3394.0423329671225,5189.940770467122,283.69140625
182.0,5166.829427083333,2791.8294270833335,1124.185562133789,3874.9993642171225,2777.1809895833335,648.1119791666666,3324.0559895833335,5001.138687133789,2958.49609375,3916.666030883789,3583.984375,2124.9993642171225,2020.9954579671223,4565.754572550456,1052.896499633789,321.2890625
183.0,1625.0,1958.3333333333333,4292.805989583333,1750.0,812.6621246337891,2694.3359375,5039.225260416667,2323.2421875,1291.8294270833333,1333.3333333333333,5207.844416300456,2583.169937133789,4817.707697550456,1640.787124633789,12.531916300455729,2311.6861979166665
184.0,3083.3333333333335,1374.9993642171223,2040.689468383789,3916.666030883789,3351.724624633789,1789.0625,4115.397135416667,16.438802083333332,583.3333333333334,2708.3326975504556,2417.3177083333335,666.8294270833334,4231.282552083333,195.80078125,5314.615885416667,4195.800145467122
185.0,4458.332697550456,2416.5032704671225,665.6894683837891,3791.5032704671225,1006.6725413004557,3423.990249633789,4810.871760050456,3984.375,3916.666030883789,1374.9993642171223,4457.681655883789,1541.8294270833333,431.31446838378906,4900.227864583333,4891.764322916667,597.6556142171224
186.0,3833.49609375,3916.6666666666665,3167.8059895833335,3291.6666666666665,1718.7493642171223,1151.3671875,2567.3828125,4292.643864949544,833.3333333333334,4291.666666666667,2957.5188954671225,3416.5032704671225,4149.4140625,643.7174479166666,2815.91796875,3782.0638020833335
187.0,2583.49609375,3375.0,4040.689468383789,2249.9993642171225,474.28321838378906,2190.5924479166665,3123.2096354166665,4423.013687133789,624.9993642171224,2833.3326975504556,3000.6510416666665,1250.1627604166667,2022.7858225504558,395.5071767171224,821.6145833333334,4975.259780883789
188.0,2666.6666666666665,5249.999364217122,4665.689468383789,625.3255208333334,1977.212905883789,2882.8118642171225,3703.125,1687.173843383789,1125.3255208333333,2749.8366038004556,1374.3483225504558,875.0,3018.8802083333335,5094.725926717122,1443.5221354166667,1903.482437133789
189.0,3291.6666666666665,4083.3333333333335,3582.193374633789,666.9921875,4094.888687133789,2745.4427083333335,1112.9557291666667,2351.8880208333335,4374.999364217122,1625.1627604166667,3791.0149892171225,4583.332697550456,1903.3203125,4138.508478800456,646.4837392171224,22.623062133789062
190.0,250.16276041666666,2916.666030883789,4001.1393229166665,2624.9993642171225,3424.966812133789,1177.408218383789,3061.685562133789,3202.7994791666665,3833.3326975504556,2333.3333333333335,1375.8138020833333,4416.503270467122,4984.212239583333,2813.4765625,690.4290517171224,3283.69140625
191.0,3166.5032704671225,1250.0,4040.3639475504556,541.9921875,194.82421875,1020.0188954671224,4634.439468383789,1043.4563954671223,916.6660308837891,4666.666666666667,2875.8138020833335,4875.162760416667,687.1738433837891,141.92708333333334,3905.4361979166665,3821.4518229166665
192.0,3083.3333333333335,1708.3326975504558,3626.1393229166665,4749.999364217122,4313.151041666667,305.01238505045575,4044.4329579671225,3053.0592600504556,3791.5032704671225,958.3326975504557,1041.9921875,666.8294270833334,150.71551005045572,5234.86328125,1054.1985829671223,1019.04296875
193.0,4249.999364217122,1708.3326975504558,3540.3639475504556,541.6666666666666,3649.4140625,663.7369791666666,4740.885416666667,2681.4778645833335,916.8294270833334,208.33269755045572,3417.48046875,2958.49609375,4727.050145467122,2887.6946767171225,2731.7708333333335,2946.1256663004556
194.0,250.16276041666666,1708.3333333333333,3040.3639475504556,1291.6666666666667,3507.8118642171225,2383.1373850504556,2397.7864583333335,2610.5143229166665,4749.999364217122,4249.999364217122,4207.518895467122,5166.666030883789,1014.9733225504557,2392.4147288004556,4390.950520833333,111.49088541666667
195.0,3916.6666666666665,833.3326975504557,4334.635416666667,3500.1627604166665,1802.896499633789,3016.4381663004556,4391.112645467122,3000.9771982828775,4000.0,3083.49609375,2540.8522288004556,3791.666030883789,2977.0501454671225,1393.06640625,2642.4147288004556,3468.2610829671225
196.0,3375.0,708.3326975504557,2709.47265625,2666.5032704671225,1559.244155883789,1768.228530883789,5250.813166300456,4785.64453125,3374.8366038004556,4250.0,874.3483225504557,3541.5032704671225,1851.7252604166667,1312.3372395833333,2113.6067708333335,1641.9264475504558
197.0,3166.5032704671225,2749.9993642171225,4374.022801717122,1458.49609375,271.3216145833333,4659.016927083333,78.125,1687.662124633789,3958.49609375,167.15494791666666,4874.348322550456,2875.1627604166665,3898.599624633789,321.9401041666667,5264.973322550456,4903.807957967122
198.0,1000.0,2416.6666666666665,2501.3020833333335,2291.666030883789,2387.6946767171225,3537.109375,1888.833999633789,2273.4368642171225,4208.332697550456,4583.333333333333,1749.5110829671223,2791.8294270833335,236.49088541666666,3180.9889475504556,1685.7096354166667,4480.468114217122
199.0,2000.0,4708.332697550456,2959.47265625,4124.836603800456,2408.203125,2886.2298329671225,5270.018895467122,296.22332255045575,1250.0,2375.1627604166665,5000.9765625,4374.999364217122,2307.779312133789,4520.99609375,1356.9329579671223,4799.478530883789
200.0,916.6666666666666,2375.0,251.46484375,1208.3333333333333,4595.539728800456,1436.5228017171223,1324.21875,1497.8841145833333,166.66666666666666,4541.829427083333,3625.6510416666665,2833.3333333333335,978.1894683837891,2899.087905883789,636.2298329671224,1987.3046875
201.0,2291.9921875,3541.666030883789,459.7981770833333,5291.666666666667,854.98046875,5011.880874633789,2669.4329579671225,4319.661458333333,2791.6666666666665,4166.666666666667,2499.3483225504556,5250.0,108.88608296712239,1264.322280883789,5012.531916300456,2274.2506663004556
202.0,416.6666666666667,1291.666030883789,4834.635416666667,2791.666030883789,4267.089207967122,1330.7291666666667,1883.951187133789,472.3307291666667,2541.666030883789,5000.0,2582.5188954671225,83.49609375,1185.3834788004558,1221.0280100504558,2226.8873850504556,1345.8658854166667
203.0,1291.6666666666667,4333.333333333333,2415.5267079671225,2291.3405100504556,4617.350260416667,841.1451975504557,3397.94921875,1694.1731770833333,291.8294270833333,3416.8294270833335,999.1855621337891,2958.3326975504556,3432.291030883789,2316.0807291666665,1233.560562133789,3945.4752604166665
204.0,2208.3333333333335,4458.332697550456,292.8059895833333,4874.836603800456,5322.428385416667,225.25978088378906,4235.188802083333,1125.6516774495442,3125.0,5125.0,4915.689468383789,4541.666666666667,2309.5696767171225,3017.9036458333335,4933.104832967122,3739.9088541666665
205.0,4166.666666666667,2000.3255208333333,1959.47265625,3625.0,3149.7395833333335,4815.4296875,2915.0390625,4798.501968383789,875.0,416.9921875,4792.317708333333,3666.666030883789,2274.087905883789,480.3059895833333,4905.2734375,4017.5774892171225
206.0,4875.0,1291.6666666666667,4084.3098958333335,2333.3333333333335,1478.189468383789,4131.347020467122,1660.64453125,2811.3606770833335,5125.162760416667,3083.49609375,1041.177749633789,3999.9993642171225,3606.2819163004556,3386.2298329671225,3193.0338541666665,2513.18359375
207.0,3541.6666666666665,3916.8294270833335,1707.5188954671223,2500.0,5196.2890625,3495.2799479166665,4611.002604166667,2310.8723958333335,5333.332697550456,4333.332697550456,2500.8138020833335,958.3326975504557,4861.653645833333,3777.5065104166665,397.9485829671224,4063.3131663004556
208.0,208.33269755045572,4166.666030883789,1375.9765625,2124.9993642171225,367.67578125,2571.9401041666665,561.1972808837891,920.8978017171224,3833.3326975504556,4791.503270467122,1957.8444163004558,3291.6666666666665,2556.9655100504556,1353.8405100504558,1648.111343383789,2799.8040517171225
209.0,4958.333333333333,2583.3326975504556,374.18556213378906,4416.503270467122,930.8261871337891,3311.197280883789,241.69921875,1043.9446767171223,3499.9993642171225,2999.9993642171225,1207.681655883789,5291.829427083333,2562.5,3226.3997395833335,3594.0748850504556,2736.9791666666665
210.0,4749.999364217122,1500.0,5290.689468383789,4666.503270467122,3145.99609375,4803.059260050456,127.60353088378906,3237.4674479166665,3458.3326975504556,2583.3326975504556,2624.5110829671225,3166.666030883789,4067.056655883789,3194.3359375,4695.80078125,440.4290517171224
211.0,4499.999364217122,1291.8294270833333,584.47265625,249.9993642171224,2225.5853017171225,5044.921239217122,3407.71484375,4734.374364217122,2624.9993642171225,4333.333333333333,2292.48046875,2458.3326975504556,1773.2747395833333,2737.3046875,3147.94921875,5194.823582967122
212.0,3374.9993642171225,166.82942708333334,4209.147135416667,875.1627604166666,3341.3079579671225,2258.3001454671225,1394.5306142171223,95.53972880045573,2041.666030883789,5042.154947916667,4167.317708333333,4749.836603800456,2098.306655883789,4816.080729166667,4432.779947916667,3154.9479166666665
213.0,791.6666666666666,666.6666666666666,2665.689468383789,2458.3333333333335,5010.253270467122,4641.763687133789,402.34375,3000.814437866211,3000.1627604166665,375.3255208333333,4207.681655883789,2208.3333333333335,3024.5768229166665,1273.9251454671223,4025.390625,3990.0716145833335
214.0,4000.1627604166665,3208.169937133789,3542.6432291666665,3208.3333333333335,3149.4140625,3850.9108225504556,956.8684895833334,4284.505208333333,4541.666030883789,3625.1627604166665,1542.3177083333333,5041.666666666667,940.7545725504557,2397.4609375,1946.9401041666667,815.91796875
215.0,3500.0,4125.162760416667,4376.139322916667,1333.49609375,812.3366038004557,2006.1842600504558,1285.9700520833333,1105.4681142171223,499.9993642171224,416.8294270833333,4167.48046875,2041.6666666666667,5310.384114583333,1488.9322916666667,5026.529947916667,4195.311864217122
216.0,1625.0,4333.332697550456,1250.8138020833333,1083.49609375,95.70248921712239,2786.2955729166665,2763.6712392171225,4895.995457967122,5333.007176717122,3458.3333333333335,3959.3098958333335,2750.0,1971.841812133789,2056.1517079671225,4106.444676717122,2103.8405100504556
217.0,3083.49609375,1041.8294270833333,1709.1471354166667,500.1627604166667,3866.3736979166665,2905.2734375,1977.701187133789,3045.8978017171225,958.3333333333334,3583.3333333333335,4500.651041666667,2666.6666666666665,3891.6009267171225,2937.0110829671225,4730.468114217122,383.95118713378906
218.0,583.49609375,2749.9993642171225,4459.147135416667,3124.9993642171225,3014.6478017171225,2564.6158854166665,4632.974624633789,1414.2252604166667,0.0006357828776041666,5000.0,4291.340510050456,2833.6588541666665,4104.166666666667,1190.103530883789,3655.9244791666665,3638.345718383789
219.0,4166.666666666667,83.65885416666667,3667.6432291666665,4499.836603800456,3810.708999633789,1718.912124633789,4788.248697916667,2929.6868642171225,2208.169937133789,2250.1627604166665,2999.3483225504556,2916.8294270833335,3892.2526041666665,1611.6536458333333,3945.3125,3773.4368642171225
220.0,5000.162760416667,4916.340510050456,2415.689468383789,4625.325520833333,5276.529947916667,877.7662913004557,5093.098322550456,3392.4153645833335,3166.6666666666665,3333.3326975504556,5250.813802083333,3583.49609375,2315.91796875,1637.6946767171223,3439.2903645833335,2097.9817708333335
221.0,666.6666666666666,499.9993642171224,292.6432291666667,1958.3333333333333,1284.0169270833333,741.69921875,1394.3678538004558,779.9479166666666,4291.666030883789,2666.8294270833335,4499.348322550456,3916.8294270833335,1276.3671875,4225.422541300456,1774.4134267171223,654.6223958333334
222.0,833.3326975504557,2125.0,1540.8522288004558,5041.503270467122,2011.0670725504558,3348.794937133789,513.0201975504557,2166.3411458333335,5291.666030883789,249.9993642171224,1208.984375,5291.666666666667,2601.3991038004556,2352.2135416666665,1723.9576975504558,4761.229832967122
223.0,41.666666666666664,374.9993642171224,2999.185562133789,5291.666666666667,2066.5690104166665,2390.4616038004556,3499.3489583333335,3922.1998850504556,4541.666666666667,1708.3333333333333,1208.984375,2333.3333333333335,2476.2369791666665,2523.1119791666665,3113.9322916666665,1025.0651041666667
224.0,4833.333333333333,791.8294270833334,4707.356135050456,4541.666030883789,4561.360041300456,422.68816630045575,1661.1328125,2483.5611979166665,2833.3333333333335,2708.3326975504556,2167.6432291666665,4999.836603800456,4355.305353800456,2595.0514475504556,3318.5221354166665,267.08984375
225.0,3416.666030883789,166.5032704671224,2792.48046875,4000.1627604166665,3012.857437133789,3369.4661458333335,2653.9713541666665,3641.6009267171225,1791.6666666666667,1875.0,4916.014989217122,2083.169937133789,3818.6848958333335,3473.1438954671225,3354.8170725504556,4898.274739583333
226.0,2208.3333333333335,2125.1627604166665,124.18556213378906,2291.6666666666665,2116.2109375,4636.555353800456,3483.3984375,3955.8919270833335,3708.3333333333335,3125.1627604166665,3416.177749633789,4833.49609375,4266.275405883789,3396.8098958333335,354.8177083333333,2508.951187133789
227.0,4000.1627604166665,3791.6666666666665,3707.3561350504556,3458.3326975504556,193.84765625,3982.5846354166665,4632.811864217122,4419.270197550456,2666.6666666666665,1958.3333333333333,3167.48046875,583.3326975504557,3770.8333333333335,3686.1979166666665,1928.384780883789,1278.4830729166667
228.0,3958.3326975504556,2208.169937133789,2374.185562133789,4583.333333333333,3063.1510416666665,3010.2532704671225,2828.61328125,1947.5911458333333,1500.0,1708.169937133789,5167.154947916667,3999.9993642171225,4517.252604166667,4402.994791666667,4513.833999633789,1895.8333333333333
229.0,1541.8294270833333,5000.162760416667,959.47265625,3625.0,4318.359375,2836.7506663004556,2884.2767079671225,5019.367853800456,3708.3333333333335,3874.9993642171225,1625.8138020833333,1208.3326975504558,1357.7473958333333,3278.3203125,2148.1119791666665,1732.2584788004558
230.0,416.66603088378906,1125.1627604166667,84.14713541666667,1749.9993642171223,2909.9934895833335,91.79623921712239,1358.7239583333333,1655.5989583333333,2041.666030883789,3791.8294270833335,4667.317708333333,2625.0,3068.5221354166665,3933.5931142171225,2144.2057291666665,3763.0201975504556
231.0,4624.836603800456,4583.333333333333,5082.518895467122,1124.8366038004558,738.76953125,2484.86328125,2260.5787913004556,3875.4876454671225,0.0006357828776041666,5041.666666666667,1666.177749633789,3041.8294270833335,2690.2669270833335,3272.2975413004556,1306.4772288004558,2678.0592600504556
232.0,5166.666030883789,666.8294270833334,1959.1471354166667,4583.658854166667,3358.3984375,2222.9811350504556,1794.7584788004558,299.8040517171224,2124.9993642171225,4208.332697550456,4791.014989217122,2083.3326975504556,4190.103530883789,2523.92578125,4512.531916300456,3689.94140625
233.0,4833.332697550456,375.0,3957.5188954671225,4958.332697550456,4648.600260416667,4506.184260050456,2507.3235829671225,938.8020833333334,5041.666030883789,4416.666666666667,5000.813802083333,999.9993642171224,2354.4915517171225,1929.1985829671223,391.43816630045575,4931.803385416667
234.0,2041.6666666666667,1708.169937133789,2542.6432291666665,4708.332697550456,2278.9713541666665,3160.8072916666665,1348.1438954671223,2273.4375,458.3333333333333,3249.8366038004556,3042.3177083333335,5291.666666666667,4973.306655883789,2681.802749633789,1227.05078125,4186.034520467122
235.0,1500.0,1041.8294270833333,2125.9765625,41.829427083333336,2531.9010416666665,155.43619791666666,66.24348958333333,3785.3190104166665,208.33333333333334,958.49609375,5041.177749633789,2375.1627604166665,2941.7317708333335,4603.189468383789,4603.840510050456,1738.9322916666667
236.0,500.1627604166667,1583.49609375,1042.8059895833333,3666.666030883789,2306.1517079671225,1058.267593383789,716.3079579671224,3453.4505208333335,624.9993642171224,375.1627604166667,3708.984375,2500.1627604166665,2562.5,1978.515625,4487.630208333333,4068.359375
237.0,3874.9993642171225,2875.0,3832.681655883789,2625.1627604166665,1729.3294270833333,1073.4049479166667,463.21551005045575,4388.345718383789,4833.49609375,1791.666030883789,5249.348322550456,208.33269755045572,2274.4134267171225,5320.149739583333,3444.0104166666665,4731.281916300456
238.0,2416.9921875,416.34051005045575,790.8522288004557,4749.999364217122,4483.723958333333,4088.052749633789,5031.901041666667,1271.9720204671223,5125.0,3666.8294270833335,166.34051005045572,916.9921875,3565.7552083333335,263.99676005045575,560.5462392171224,4849.609375
239.0,4666.829427083333,5250.162760416667,582.3561350504557,1708.169937133789,2258.462905883789,4218.261082967122,392.5774892171224,1822.75390625,500.0,166.82942708333334,1457.8444163004558,958.3333333333334,4349.445978800456,1023.6002604166666,1268.7174479166667,279.4596354166667
240.0,2208.49609375,4749.999364217122,4792.48046875,1291.8294270833333,3904.9479166666665,2025.5533854166667,3304.361343383789,5252.929051717122,3999.9993642171225,4333.332697550456,2999.3483225504556,1999.9993642171223,3601.724624633789,4435.221354166667,26.204427083333332,1778.6458333333333
241.0,2125.0,3416.8294270833335,792.48046875,125.32552083333333,557.6165517171224,2694.0104166666665,4954.264322916667,2448.73046875,1500.3255208333333,1458.3333333333333,1917.48046875,41.666666666666664,23.436864217122395,857.0963541666666,680.0123850504557,3810.8717600504556
242.0,2958.3333333333335,791.6666666666666,1832.3561350504558,2166.666030883789,4851.399103800456,4548.176447550456,409.1796875,1021.6471354166666,2375.1627604166665,749.8366038004557,4124.348322550456,5333.332697550456,396.15821838378906,987.3046875,2516.763687133789,2734.8626454671225
243.0,666.6660308837891,2041.666030883789,2917.6432291666665,1916.666030883789,4362.955729166667,3714.6803538004556,4361.165364583333,2476.0735829671225,3916.6666666666665,1375.1627604166667,3124.673843383789,2583.3333333333335,984.86328125,3765.787124633789,1936.5234375,2022.2981770833333
244.0,2708.3326975504556,1541.6666666666667,792.48046875,4458.333333333333,573.0794270833334,4070.6380208333335,1734.0494791666667,1994.3033854166667,2833.3326975504556,83.33269755045573,3458.984375,624.9993642171224,267.41472880045575,3937.98828125,4272.135416666667,136.39259338378906
245.0,625.1627604166666,1250.1627604166667,3957.681655883789,583.49609375,5028.157552083333,192.22005208333334,1591.6334788004558,3255.533218383789,3499.9993642171225,2500.0,2750.6510416666665,416.66603088378906,3395.5071767171225,3771.9720204671225,596.1907704671224,4598.632176717122
246.0,3250.0,1333.3333333333333,2042.48046875,1416.8294270833333,1688.1510416666667,1989.74609375,464.02931213378906,4805.175145467122,1625.1627604166667,4833.332697550456,874.5110829671224,874.9993642171224,3857.583999633789,3430.337905883789,2639.4850413004556,1435.546875
247.0,4625.0,249.9993642171224,4792.643229166667,4374.999364217122,2694.6614583333335,3588.3782704671225,3780.4361979166665,5104.328791300456,4624.999364217122,2166.5032704671225,4583.984375,5166.503270467122,2025.2278645833333,652.1809895833334,4019.5306142171225,149.73894755045572
248.0,3208.3333333333335,2999.8366038004556,4499.348322550456,3041.8294270833335,1201.4973958333333,3032.3893229166665,4892.089207967122,570.80078125,416.6666666666667,166.82942708333334,2083.0071767171225,125.32552083333333,1765.6243642171223,1975.9108225504558,2602.2135416666665,2403.1575520833335
249.0,4833.332697550456,5166.666030883789,1124.185562133789,2250.0,2071.6145833333335,3015.6243642171225,2262.0436350504556,4370.768229166667,3416.6666666666665,5000.162760416667,5291.177749633789,2833.3333333333335,65.10416666666667,18.880208333333332,5109.375,1611.1653645833333
250.0,4041.666030883789,2833.49609375,1040.8522288004558,2000.0,4024.4140625,2888.6712392171225,4546.386082967122,4990.234375,2499.9993642171225,1916.6666666666667,3250.8138020833335,4750.0,4606.770197550456,4809.244155883789,722.0045725504557,2855.95703125
251.0,4250.0,2333.0071767171225,3292.48046875,1916.6666666666667,4351.887385050456,4339.843114217122,1091.7962392171223,1772.4609375,3374.8366038004556,208.33269755045572,5250.651041666667,1916.666030883789,2354.8170725504556,2236.9791666666665,2225.259780883789,5265.462239583333
252.0,2416.6666666666665,3833.3326975504556,3500.9765625,3000.1627604166665,1697.1028645833333,1576.9856770833333,3389.322280883789,2983.5611979166665,333.8216145833333,3333.3333333333335,3792.3177083333335,1166.8294270833333,1943.359375,4182.128270467122,4939.289728800456,143.0657704671224
253.0,833.3333333333334,3041.6666666666665,3957.3561350504556,3166.6666666666665,4426.757176717122,1487.79296875,724.4459788004557,2367.8385416666665,249.67384338378906,2458.49609375,1708.984375,166.66603088378906,607.91015625,4521.484375,2103.3522288004556,1362.6302083333333
254.0,874.8366038004557,1791.8294270833333,4667.48046875,4791.829427083333,3763.833999633789,2475.0970204671225,2325.3580729166665,2201.4973958333335,5333.332697550456,4291.666666666667,3125.8138020833335,4416.666666666667,1229.166030883789,2436.6861979166665,2820.3125,1182.779312133789
255.0,791.6660308837891,4583.169937133789,3542.6432291666665,4000.1627604166665,647.94921875,2531.25,3077.7994791666665,4765.787124633789,3416.666030883789,2291.8294270833335,4666.014989217122,41.66603088378906,4435.221354166667,1611.0026041666667,3431.1517079671225,17.252604166666668
256.0,1083.49609375,291.6666666666667,2750.9765625,4625.162760416667,2527.5065104166665,3421.8743642171225,594.5631663004557,688.3131663004557,4666.666666666667,3791.666030883789,5000.651041666667,3666.666030883789,4024.7395833333335,2943.84765625,4186.034520467122,2391.9270833333335
257.0,1541.666030883789,4999.999364217122,2041.9921875,416.66603088378906,2591.958999633789,1364.9088541666667,2565.4296875,5302.082697550456,3916.6666666666665,1500.0,582.8444163004557,4208.333333333333,1107.7473958333333,2314.94140625,602.3763020833334,3553.873062133789
258.0,4625.0,1874.9993642171223,917.48046875,1374.9993642171223,656.5755208333334,5224.445978800456,988.6067708333334,2419.107437133789,3583.3333333333335,4499.999364217122,3749.5110829671225,333.49609375,4642.903010050456,814.6152496337891,264.97332255045575,4512.857437133789
259.0,166.66603088378906,791.6666666666666,4250.651041666667,2958.169937133789,1684.244155883789,430.98894755045575,3995.4427083333335,2572.265625,4416.829427083333,5000.0,4375.48828125,3833.3326975504556,2482.2584788004556,4309.569676717122,1180.5006663004558,5271.809895833333
260.0,541.6660308837891,5333.169937133789,1374.0228017171223,3291.3405100504556,897.94921875,4548.501968383789,3158.3658854166665,3145.6705729166665,1708.984375,3500.1627604166665,749.3483225504557,2166.666030883789,5020.832697550456,4012.857437133789,1850.0970204671223,1027.1803538004558
261.0,4916.666666666667,2166.5032704671225,124.34832255045573,625.0,322.4283854166667,2173.8274892171225,2806.1517079671225,608.3984375,2749.9993642171225,4791.666666666667,3416.0149892171225,5124.999364217122,2639.810562133789,2849.1204579671225,2018.8802083333333,143.22853088378906
262.0,3999.9993642171225,1250.0,874.1855621337891,1999.9993642171223,4740.397135416667,862.6302083333334,4308.430353800456,3745.1171875,1874.8366038004558,4000.1627604166665,4875.48828125,1541.6666666666667,2566.5690104166665,729.3287913004557,1686.5228017171223,2761.0670725504556
263.0,208.33269755045572,3458.3333333333335,1332.5188954671223,125.0,2598.306655883789,4725.097020467122,5215.494155883789,161.1328125,4791.666030883789,2791.8294270833335,3583.984375,4750.162760416667,2271.3209788004556,2229.9798329671225,1529.1341145833333,2692.87109375
264.0,3000.0,4624.836603800456,4874.185562133789,1666.666030883789,4685.546239217122,3657.2265625,2619.62890625,817.87109375,1166.6666666666667,3833.3333333333335,707.6816558837891,4333.49609375,2773.111343383789,5305.012385050456,3443.6848958333335,816.2428538004557
265.0,3749.9993642171225,1874.9993642171223,4375.813802083333,2958.3326975504556,2804.849624633789,755.0449371337891,864.4205729166666,4479.654312133789,3416.666030883789,1833.169937133789,2917.3177083333335,3791.5032704671225,5141.275405883789,5236.002604166667,4519.693374633789,684.08203125
266.0,4083.3333333333335,458.3333333333333,2250.8138020833335,5041.666666666667,4324.381510416667,4864.908854166667,2851.3991038004556,5030.2734375,1624.8366038004558,916.8294270833334,4541.177749633789,3666.6666666666665,1808.267593383789,2435.0579579671225,1435.7096354166667,862.4674479166666
267.0,4874.999364217122,3833.169937133789,4790.689468383789,5250.0,2361.4908854166665,58.5931142171224,1363.6067708333333,4579.915364583333,4708.169937133789,625.0,1792.6432291666667,4541.666030883789,728.1894683837891,5190.103530883789,3526.85546875,4388.345718383789
268.0,3583.49609375,4624.999364217122,1834.3098958333333,1916.666030883789,3809.5696767171225,4138.345718383789,2787.4348958333335,2927.0826975504556,958.3333333333334,4666.666030883789,2082.8444163004556,2333.49609375,3982.583999633789,3308.5931142171225,2320.1497395833335,2853.3522288004556
269.0,4208.333333333333,1125.0,2084.3098958333335,2375.0,1523.1119791666667,964.5175933837891,1758.7884267171223,729.6543121337891,3833.3333333333335,2874.9993642171225,207.68165588378906,41.66603088378906,4645.833333333333,5012.531916300456,65.91796875,3527.3431142171225
270.0,2583.3333333333335,1333.49609375,1750.9765625,958.1699371337891,3385.2532704671225,4661.62109375,4348.632176717122,1141.275405883789,3708.6588541666665,2375.1627604166665,2792.3177083333335,3916.666030883789,5318.84765625,1527.0182291666667,2481.7701975504556,1934.5696767171223
271.0,2958.3333333333335,874.8366038004557,1291.0149892171223,4375.0,3905.9244791666665,3529.4596354166665,3308.1048329671225,1202.4739583333333,4333.332697550456,1250.0,3874.3483225504556,2208.49609375,2850.748062133789,3937.3366038004556,4144.367853800456,1219.400405883789
272.0,4583.49609375,2958.3333333333335,3500.9765625,2958.6588541666665,1098.4694163004558,2516.9264475504556,1590.1686350504558,1869.4661458333333,166.9921875,1458.3333333333333,3541.177749633789,4583.333333333333,478.3528645833333,2436.8489583333335,5112.3046875,3692.5455729166665
273.0,166.66666666666666,1416.666030883789,499.0228017171224,4249.999364217122,1144.8561350504558,1115.72265625,36.295572916666664,4067.87109375,1125.0,916.6660308837891,1167.48046875,2541.6666666666665,732.2584788004557,278.6458333333333,2777.0182291666665,58.756510416666664
274.0,5125.0,3666.666030883789,415.68946838378906,708.6588541666666,1221.5162913004558,2494.62890625,4655.2734375,4978.678385416667,41.829427083333336,3875.1627604166665,1709.1471354166667,5208.332697550456,3557.4537913004556,2527.1809895833335,4353.026707967122,3357.7467600504556
275.0,3083.49609375,3583.49609375,457.68165588378906,1416.8294270833333,424.15301005045575,385.2532704671224,3481.93359375,758.7884267171224,4291.666666666667,2333.3333333333335,1750.6510416666667,1291.9921875,3348.6321767171225,1810.3834788004558,1397.7858225504558,1947.4283854166667
276.0,5333.332697550456,3916.5032704671225,667.6432291666666,3749.9993642171225,1136.5553538004558,2899.7395833333335,3406.0872395833335,2872.0703125,4833.333333333333,3708.3326975504556,1792.3177083333333,458.6588541666667,1147.7864583333333,2143.5546875,4222.492853800456,944.9869791666666
277.0,3166.8294270833335,375.0,624.3483225504557,3416.666030883789,5017.577489217122,5138.345718383789,4496.09375,3425.943374633789,708.3326975504557,4416.666666666667,4167.48046875,0.0006357828776041666,3101.07421875,1266.9264475504558,4653.483072916667,2852.701187133789
278.0,2083.3326975504556,3458.3326975504556,959.1471354166666,1458.49609375,314.7786458333333,1869.140625,3615.8854166666665,3645.1822916666665,5291.666666666667,1416.5032704671223,2874.5110829671225,4708.332697550456,3021.1588541666665,5237.630208333333,1482.5846354166667,152.3431142171224
279.0,4000.1627604166665,3583.3326975504556,4625.813802083333,1958.49609375,1511.392593383789,3493.3268229166665,4473.469416300456,4275.716145833333,4500.0,1458.169937133789,3917.3177083333335,1625.1627604166667,2026.5299479166667,817.7083333333334,4606.444676717122,3649.4140625
280.0,4833.169937133789,2041.6666666666667,709.3098958333334,1750.1627604166667,5197.265625,1680.0123850504558,2973.794937133789,378.9056142171224,5208.332697550456,4333.332697550456,4916.014989217122,2583.49609375,149.08854166666666,1146.646499633789,60.5462392171224,4135.578791300456
281.0,41.829427083333336,791.9921875,3792.48046875,1291.8294270833333,1484.2122395833333,2232.91015625,1715.6569163004558,3702.4739583333335,3916.8294270833335,708.49609375,3957.681655883789,2000.0,3978.02734375,2353.515625,3778.80859375,4192.708333333333
282.0,1166.6666666666667,250.16276041666666,5041.014989217122,1874.9993642171223,3854.4915517171225,3407.5520833333335,2743.8151041666665,776.2044270833334,250.0,583.3326975504557,417.48046875,2291.666030883789,892.578125,5304.686864217122,4098.469416300456,2192.056655883789
283.0,2583.3333333333335,3375.0,3040.689468383789,3625.0,2014.1595204671223,546.7116038004557,2595.2142079671225,3270.8333333333335,1791.8294270833333,2958.3326975504556,2125.8138020833335,4500.0,2358.7239583333335,4764.322280883789,2062.173843383789,59.895833333333336
284.0,3791.6666666666665,291.8294270833333,4707.681655883789,750.1627604166666,3032.71484375,3885.416030883789,3940.1041666666665,3842.2845204671225,1333.3333333333333,5000.0,2707.681655883789,2374.9993642171225,600.0970204671224,560.5462392171224,1522.7858225504558,4238.444010416667
285.0,3041.666030883789,1416.8294270833333,1000.9765625,5041.666666666667,1985.3515625,3266.763687133789,177.2454579671224,4086.7506663004556,166.66666666666666,3666.6666666666665,2834.3098958333335,1041.6666666666667,3355.46875,3189.9407704671225,1527.9947916666667,1055.5006663004558
286.0,3208.49609375,2124.9993642171225,2582.5188954671225,333.16993713378906,3397.7864583333335,13.182957967122396,2912.9231770833335,4197.265625,2416.6666666666665,1791.666030883789,1249.5110829671223,3666.8294270833335,2308.7565104166665,3349.9342600504556,4569.986979166667,3604.1666666666665
287.0,2041.6666666666667,1291.6666666666667,624.1855621337891,2124.9993642171225,5107.747395833333,3089.517593383789,841.9589996337891,1521.8092600504558,1375.0,2708.3326975504556,499.34832255045575,4083.3333333333335,1855.1432291666667,1904.1341145833333,3107.5846354166665,1181.4778645833333
288.0,2499.8366038004556,2458.3326975504556,541.0149892171224,625.0,634.9277496337891,1701.4973958333333,942.5455729166666,2401.2044270833335,0.0006357828776041666,2124.9993642171225,582.8444163004557,3583.3326975504556,3235.5143229166665,3192.3828125,3940.4290517171225,892.0892079671224
289.0,1666.666030883789,3958.49609375,1792.6432291666667,666.6666666666666,3948.0794270833335,2680.1751454671225,984.7005208333334,4962.889989217122,3416.9921875,4000.1627604166665,1459.1471354166667,4416.666666666667,17.90301005045573,397.13478088378906,3144.0423329671225,1802.896499633789
290.0,1916.666030883789,2791.8294270833335,4249.185562133789,2041.9921875,1723.1438954671223,2516.763687133789,1715.005874633789,3201.9856770833335,3250.0,625.1627604166666,1874.5110829671223,375.1627604166667,1853.8411458333333,687.6627604166666,3612.3046875,3983.88671875
291.0,999.9993642171224,2708.3326975504556,3666.0149892171225,1625.0,2271.484375,159.83072916666666,2910.64453125,2932.4537913004556,3458.3333333333335,5083.49609375,1042.3177083333333,3499.9993642171225,3350.7486979166665,404.6223958333333,2848.4694163004556,5307.942708333333
292.0,2416.666030883789,5208.333333333333,2915.8522288004556,2708.169937133789,902.5065104166666,2995.1171875,137.2063954671224,4979.166666666667,5041.666666666667,4791.666030883789,4000.6510416666665,1624.8366038004558,3224.771499633789,4527.34375,5103.840510050456,4231.932957967122
293.0,2749.9993642171225,4583.332697550456,124.34832255045573,1499.9993642171223,4574.70703125,4760.253270467122,1601.3991038004558,674.6412913004557,625.0,3333.0071767171225,3542.3177083333335,4791.829427083333,3558.267593383789,605.7942708333334,5022.785822550456,1113.9322916666667
294.0,3583.3333333333335,4541.666666666667,2375.8138020833335,2458.169937133789,3179.849624633789,4809.081395467122,2948.4049479166665,169.59571838378906,2166.666030883789,541.6660308837891,3000.9765625,4041.666030883789,3980.46875,981.7701975504557,3986.1653645833335,222.00457255045572
295.0,4291.829427083333,1208.49609375,4665.852228800456,3750.0,2731.6080729166665,2429.849624633789,2663.0859375,4887.857437133789,541.6666666666666,3458.3333333333335,3792.1549479166665,2416.8294270833335,1357.9095204671223,2183.267593383789,320.1497395833333,4480.305353800456
296.0,5291.666030883789,3958.49609375,1292.6432291666667,5124.836603800456,2065.5924479166665,2714.6803538004556,3883.462905883789,3143.8802083333335,3958.169937133789,2250.0,1416.0149892171223,125.0,4021.6471354166665,3637.6946767171225,1441.0807291666667,1110.513687133789
297.0,750.0,4916.503270467122,3875.6510416666665,4583.332697550456,343.91212463378906,1423.8274892171223,1140.298843383789,817.7083333333334,4708.169937133789,4916.666030883789,2125.6510416666665,5208.332697550456,2681.6399892171225,307.94207255045575,3773.111343383789,1857.91015625
298.0,2374.9993642171225,5041.666030883789,750.6510416666666,4833.332697550456,2864.4205729166665,4569.173177083333,2098.1438954671225,3963.541030883789,2499.9993642171225,3041.666030883789,4832.518895467122,4874.999364217122,3809.5696767171225,1685.7096354166667,684.8951975504557,2030.2734375
299.0,3833.49609375,750.1627604166666,292.8059895833333,4999.836603800456,2514.6478017171225,2941.5690104166665,2672.1998850504556,1590.1686350504558,1041.5032704671223,4041.6666666666665,2415.8522288004556,875.0,728.515625,4562.825520833333,1529.6223958333333,3933.267593383789
300.0,4458.49609375,4708.169937133789,1042.6432291666667,1875.0,3978.0267079671225,117.02473958333333,3535.4817708333335,2224.6087392171225,4500.0,2583.3333333333335,4500.651041666667,2750.0,351.8880208333333,2070.6380208333335,1640.298843383789,1192.544937133789
301.0,2999.9993642171225,5083.333333333333,3124.185562133789,4625.162760416667,4904.134114583333,3286.7838541666665,2779.6223958333335,646.1582183837891,3916.666030883789,416.66603088378906,1792.48046875,2458.49609375,3234.7005208333335,2485.5143229166665,2438.1510416666665,3689.615249633789
302.0,291.6666666666667,5291.666030883789,5000.651041666667,5125.0,2883.7884267171225,3552.408218383789,4559.406916300456,4908.203125,1166.8294270833333,2124.9993642171225,1333.984375,250.0,3516.4381663004556,1064.1276041666667,939.4524892171224,155.2734375
303.0,1249.9993642171223,1208.3333333333333,3959.1471354166665,4874.999364217122,3138.9967600504556,351.0735829671224,3907.0638020833335,2037.9231770833333,1791.8294270833333,1166.6666666666667,4374.022801717122,3249.9993642171225,229.81770833333334,4106.607437133789,653.3203125,1902.83203125
304.0,1708.3326975504558,166.9921875,5124.348322550456,4166.666030883789,5101.561864217122,3487.3046875,2295.572280883789,4969.563166300456,4041.666030883789,1124.9993642171223,3749.3483225504556,4374.999364217122,4524.087905883789,3349.4459788004556,2236.81640625,4437.174479166667
305.0,2875.0,3999.9993642171225,457.5188954671224,208.49609375,1808.9186350504558,1202.3111979166667,4616.2109375,895.99609375,83.33269755045573,2666.8294270833335,2541.0149892171225,1083.3333333333333,1480.46875,3679.361343383789,3691.0807291666665,3276.2037913004556
306.0,3958.3326975504556,3791.6666666666665,875.9765625,3041.8294270833335,3718.7493642171225,867.67578125,3892.0892079671225,2680.6634267171225,3749.9993642171225,3416.666030883789,4874.348322550456,4125.0,1140.298843383789,4516.275405883789,5225.911458333333,5234.375
307.0,833.3326975504557,375.0,4249.022801717122,1041.6666666666667,3469.2376454671225,2347.4928538004556,2348.1438954671225,162.109375,4083.3333333333335,1833.49609375,1499.5110829671223,4958.333333333333,268.22853088378906,3230.630874633789,3518.228530883789,1280.5989583333333
308.0,3916.6666666666665,2833.8216145833335,4374.185562133789,791.9921875,2484.86328125,5099.934260050456,244.46614583333334,1006.9980621337891,1875.0,1791.666030883789,1041.177749633789,3416.6666666666665,5146.646499633789,1520.669937133789,4070.6380208333335,4441.40625
309.0,5041.666030883789,2125.1627604166665,1417.48046875,4541.9921875,3519.693374633789,1325.0325520833333,5285.481770833333,3350.748062133789,624.9993642171224,3000.0,332.5188954671224,1249.8366038004558,1898.599624633789,2570.4752604166665,1526.2044270833333,2110.025405883789
310.0,4916.666030883789,5249.999364217122,959.3098958333334,3708.3326975504556,1695.3125,1702.4739583333333,4279.459635416667,3270.99609375,250.16276041666666,2958.49609375,832.8444163004557,5249.999364217122,140.46160380045572,2485.3515625,3854.6549479166665,935.8723958333334
311.0,583.3333333333334,3708.3326975504556,5167.317708333333,5083.333333333333,4159.505208333333,968.9121246337891,5100.585301717122,924.6412913004557,1833.3333333333333,166.66666666666666,3375.6510416666665,1625.0,2442.87109375,3560.708999633789,4477.864583333333,3011.880874633789
312.0,3833.169937133789,4458.332697550456,4790.852228800456,1333.49609375,2779.78515625,2191.0807291666665,2864.9088541666665,3337.2389475504556,3749.9993642171225,4291.503270467122,2250.8138020833335,4208.333333333333,4436.034520467122,5022.785822550456,2277.9947916666665,1402.9947916666667
313.0,2416.666030883789,4708.333333333333,4126.139322916667,2916.666030883789,1606.1197916666667,1113.28125,4170.083999633789,530.4361979166666,5083.332697550456,2375.3255208333335,1083.984375,4541.666030883789,3190.9173329671225,4651.204427083333,304.84962463378906,4436.848958333333
314.0,4666.666030883789,4500.162760416667,4792.48046875,333.49609375,5225.259780883789,2507.3235829671225,4616.373697916667,647.2975413004557,2958.169937133789,5291.666666666667,4374.185562133789,208.49609375,1980.7942708333333,111.65364583333333,5190.592447916667,3265.2994791666665
315.0,1208.49609375,2666.8294270833335,542.48046875,4916.666030883789,1760.5787913004558,2506.8353017171225,2766.1126454671225,3986.1653645833335,4125.0,2208.49609375,2624.673843383789,4833.332697550456,2526.3671875,1775.390625,4190.103530883789,4900.87890625
316.0,1708.49609375,750.0,2125.9765625,3083.3333333333335,3719.0748850504556,1110.5143229166667,1277.6692708333333,3922.3626454671225,791.6660308837891,4833.332697550456,334.1471354166667,4750.0,2481.93359375,3772.9485829671225,3398.6002604166665,4511.880874633789
317.0,4625.0,2583.3333333333335,1499.185562133789,5333.332697550456,2724.6087392171225,4899.739583333333,3547.3626454671225,4757.160822550456,4541.666666666667,4541.666030883789,3208.984375,417.1549479166667,1560.7096354166667,2729.3294270833335,4137.369155883789,24.739583333333332
318.0,999.8366038004557,1499.8366038004558,2750.6510416666665,3124.9993642171225,3188.8020833333335,2450.68359375,1577.3111979166667,2858.5611979166665,2375.0,5083.332697550456,4625.651041666667,3875.0,2851.3997395833335,54.52410380045573,1598.794937133789,3265.625
319.0,3666.6666666666665,3000.1627604166665,3750.8138020833335,4750.162760416667,4153.3203125,5088.541030883789,3346.5162913004556,2271.158218383789,5250.0,4666.829427083333,1291.177749633789,2708.49609375,4473.632176717122,860.5143229166666,895.6705729166666,1314.126968383789
320.0,4708.333333333333,3249.9993642171225,3374.3483225504556,3291.666030883789,3967.6100413004556,2218.912124633789,2107.0963541666665,1826.4973958333333,3125.0,4791.666666666667,208.16993713378906,250.32552083333334,4975.585301717122,2561.197280883789,1935.7096354166667,197.265625
321.0,958.49609375,1083.3333333333333,3374.0228017171225,541.6666666666666,1263.6712392171223,2767.5774892171225,990.72265625,4836.913426717122,2041.6666666666667,1833.0071767171223,707.6816558837891,4125.162760416667,2312.3366038004556,1106.2819163004558,221.6790517171224,4402.994791666667
322.0,2750.0,499.83660380045575,2499.185562133789,3250.1627604166665,1439.1276041666667,279.78515625,3796.3860829671225,4386.555353800456,1833.3333333333333,5000.0,2707.8444163004556,3666.6666666666665,1983.2350413004558,1942.7083333333333,694.1731770833334,4313.150405883789
323.0,2666.6666666666665,4291.503270467122,3999.185562133789,3874.8366038004556,3859.375,4547.525405883789,3218.5866038004556,4522.134780883789,1000.3255208333334,4416.666666666667,1708.984375,4083.169937133789,856.93359375,1929.5241038004558,2814.94140625,1942.7076975504558
324.0,1166.666030883789,3666.6666666666665,2040.8522288004558,2750.1627604166665,1574.8697916666667,3075.3580729166665,3900.2278645833335,596.6790517171224,4166.666666666667,5249.999364217122,1917.3177083333333,1208.3333333333333,5263.996760050456,2608.0729166666665,4725.748697916667,4401.041666666667
325.0,4416.666030883789,333.33269755045575,2167.48046875,2416.666030883789,5282.71484375,3277.34375,5264.647801717122,1088.2155100504558,666.6666666666666,875.1627604166666,4666.014989217122,1749.9993642171223,191.56901041666666,189.12696838378906,3690.4296875,1446.6145833333333
326.0,1041.8294270833333,541.8294270833334,2540.8522288004556,3625.0,5192.3828125,1932.6165517171223,3422.6881663004556,574.3815104166666,3291.6666666666665,1999.9993642171223,1292.48046875,3666.8294270833335,2522.4603017171225,563.6393229166666,3846.0280100504556,3273.2747395833335
327.0,2624.9993642171225,5249.999364217122,2665.8522288004556,1500.1627604166667,1852.5384267171223,534.5052083333334,3369.3033854166665,2483.3984375,3874.673843383789,249.9993642171224,4957.518895467122,3624.9993642171225,1023.2741038004557,2846.353530883789,765.4616038004557,3192.3821767171225
328.0,4916.666666666667,2124.9993642171225,3415.689468383789,5208.169937133789,971.1907704671224,452.7994791666667,4929.198582967122,4770.99609375,4750.162760416667,1874.8366038004558,2291.177749633789,4833.332697550456,5109.537760416667,2151.85546875,1229.00390625,2477.7018229166665
329.0,4374.999364217122,1208.3326975504558,1792.48046875,5166.666666666667,343.09832255045575,1761.0670725504558,2608.0729166666665,2035.15625,3166.666030883789,4083.3326975504556,1958.984375,1583.3333333333333,975.7480621337891,2728.0267079671225,5105.468114217122,1947.4283854166667
330.0,3125.1627604166665,4333.333333333333,4541.014989217122,2541.8294270833335,152.99479166666666,3434.244155883789,532.8776041666666,2128.7428538004556,0.16276041666666666,458.33269755045575,4250.48828125,166.82942708333334,3479.8177083333335,60.546875,2778.9713541666665,2138.9967600504556
331.0,250.0,1708.3333333333333,3165.8522288004556,4583.332697550456,2727.701187133789,2678.384780883789,3004.2311350504556,2029.6223958333333,2375.0,1583.169937133789,3875.48828125,1500.3255208333333,558.2682291666666,2192.7083333333335,3027.9947916666665,1729.9798329671223
332.0,5041.666666666667,458.49609375,1916.0149892171223,1416.8294270833333,4891.275405883789,3951.8229166666665,1157.0638020833333,2270.01953125,41.9921875,1791.666030883789,4749.348322550456,3791.6666666666665,5185.383478800456,137.85743713378906,3523.2747395833335,57.454427083333336
333.0,1208.3333333333333,5166.829427083333,3457.5188954671225,1416.6666666666667,5009.439468383789,1465.8196767171223,4891.600926717122,1138.1829579671223,3708.3326975504556,5125.0,3541.177749633789,3624.9993642171225,3860.3515625,2683.4303538004556,4476.5625,2431.9655100504556
334.0,666.6666666666666,2583.49609375,1040.8522288004558,3541.5032704671225,3864.5833333333335,4972.655614217122,2736.1653645833335,4296.223322550456,2583.3333333333335,2125.1627604166665,3333.8216145833335,1416.6666666666667,1642.740249633789,4689.126968383789,642.4147288004557,4594.563166300456
335.0,1250.0,4208.332697550456,3292.8059895833335,2000.1627604166667,1849.4459788004558,806.4772288004557,3755.533218383789,4048.501968383789,4166.503270467122,1458.3326975504558,4042.3177083333335,4666.666030883789,3772.7858225504556,5227.538426717122,1404.6223958333333,2725.4225413004556
336.0,3916.8294270833335,1624.9993642171223,4333.984375,3583.49609375,2687.173843383789,3756.8353017171225,1201.8229166666667,815.2669270833334,2208.3333333333335,2749.9993642171225,1875.6510416666667,958.3326975504557,2767.9036458333335,4387.531916300456,2432.291030883789,930.8268229166666
337.0,5083.332697550456,3500.0,4707.356135050456,3291.666030883789,4178.222020467122,2619.9544270833335,653.1575520833334,2437.0110829671225,3708.3326975504556,4458.332697550456,1750.6510416666667,5249.836603800456,1306.4772288004558,1693.84765625,2771.4837392171225,63.9642079671224
338.0,4250.162760416667,1500.0,667.3177083333334,708.49609375,4091.7962392171225,4822.428385416667,3815.2669270833335,1244.140625,3083.3333333333335,291.8294270833333,1292.6432291666667,3666.6666666666665,2224.4459788004556,1063.96484375,2230.630874633789,1447.4283854166667
339.0,1958.0071767171223,2750.3255208333335,1209.1471354166667,3041.5032704671225,471.6790517171224,3267.4147288004556,866.0481770833334,5079.427083333333,333.49609375,1541.666030883789,4332.518895467122,625.0,2271.8098958333335,64.45248921712239,320.3125,1222.330093383789
340.0,4083.6588541666665,1875.1627604166667,457.5188954671224,5166.666030883789,4023.4375,3947.4283854166665,171.3860829671224,987.3046875,2333.3333333333335,5041.666030883789,3792.3177083333335,83.33333333333333,1642.9036458333333,3360.0260416666665,4514.322280883789,1355.3053538004558
341.0,3291.666030883789,1958.3326975504558,1540.8522288004558,3500.0,4973.794937133789,796.8743642171224,2490.72265625,1561.03515625,2791.8294270833335,3250.0,3375.9765625,4541.829427083333,4481.770833333333,4762.206395467122,1351.724624633789,3015.7877604166665
342.0,5166.666030883789,5125.325520833333,84.14713541666667,4041.8294270833335,406.25,382.64910380045575,2474.9342600504556,4220.539728800456,291.66603088378906,4750.0,5125.651041666667,3708.3333333333335,1264.810562133789,2766.763687133789,5184.5703125,139.81056213378906
343.0,3749.9993642171225,208.33333333333334,2749.3483225504556,3416.666030883789,1405.76171875,222.98113505045572,3485.83984375,4796.874364217122,3958.3326975504556,2500.0,4124.511082967122,5291.503270467122,1101.724624633789,1314.615249633789,851.0735829671224,3344.7259267171225
344.0,1166.666030883789,2666.666030883789,2790.8522288004556,416.6666666666667,1807.6165517171223,432.29103088378906,506.3470204671224,465.98243713378906,4875.0,2583.49609375,3458.6588541666665,250.16276041666666,4772.460301717122,2394.3678538004556,2804.5241038004556,4309.569676717122
345.0,916.8294270833334,3416.8294270833335,3834.1471354166665,4166.666666666667,5064.94140625,4994.140625,1577.1484375,2983.2356770833335,458.49609375,1000.1627604166666,3874.5110829671225,3374.9993642171225,4185.709635416667,987.4674479166666,4140.624364217122,4276.366551717122
346.0,3458.3326975504556,0.16276041666666666,542.6432291666666,4666.829427083333,5279.459635416667,1588.8665517171223,2929.849624633789,1021.97265625,3708.169937133789,1958.49609375,1332.681655883789,333.49609375,1484.86328125,4598.143895467122,1813.3131663004558,3479.8170725504556
347.0,666.6660308837891,1583.6588541666667,4666.014989217122,1625.1627604166667,407.2265625,863.9322916666666,4232.584635416667,2296.7116038004556,3708.3326975504556,3624.9993642171225,4666.014989217122,5166.666666666667,3524.2513020833335,2563.6393229166665,2811.3606770833335,947.265625
348.0,4333.49609375,1833.49609375,2000.8138020833333,1541.6666666666667,1694.0104166666667,4149.088541666667,4074.0559895833335,4579.1015625,3041.666030883789,916.6666666666666,250.65104166666666,1958.49609375,2437.6627604166665,435.546875,2805.0123850504556,3194.0104166666665
349.0,3999.9993642171225,83.65885416666667,3876.1393229166665,1958.3326975504558,2436.685562133789,2031.4127604166667,2162.109375,4512.857437133789,1374.9993642171223,666.8294270833334,4582.518895467122,3666.666030883789,1975.09765625,1848.306655883789,2847.4928538004556,1647.134780883789
350.0,249.9993642171224,5166.666666666667,668.1315104166666,2416.666030883789,2974.771499633789,3464.6803538004556,4781.412760416667,519.3684895833334,4166.666030883789,4750.0,709.3098958333334,666.6666666666666,3814.453125,2987.1419270833335,1977.0501454671223,598.9583333333334
351.0,1166.666030883789,3541.8294270833335,4582.030614217122,0.16276041666666666,3448.4049479166665,701.8229166666666,3816.0807291666665,987.9557291666666,375.1627604166667,1625.0,1124.5110829671223,4416.666030883789,2473.4694163004556,2025.7161458333333,2517.578125,847.9811350504557
352.0,4083.3326975504556,5125.0,3123.697280883789,3791.5032704671225,2655.76171875,4055.337905883789,3263.6712392171225,2119.3033854166665,1958.6588541666667,1916.6666666666667,874.1855621337891,4833.333333333333,1648.6002604166667,811.5234375,1683.9186350504558,1137.0436350504558
353.0,3333.3326975504556,5250.162760416667,1042.8059895833333,333.6588541666667,1691.7317708333333,806.8027496337891,2630.8587392171225,2950.5208333333335,4541.829427083333,541.6660308837891,3457.681655883789,4124.999364217122,1018.7174479166666,1310.8717600504558,570.80078125,4642.740249633789
354.0,3666.666030883789,958.3326975504557,248.86004130045572,4416.503270467122,1603.3522288004558,3160.4817708333335,2618.65234375,4267.577489217122,2916.8294270833335,3416.8294270833335,458.984375,5083.49609375,2352.5390625,4403.80859375,5182.128270467122,3068.033218383789
355.0,5208.332697550456,2416.666030883789,4540.363947550456,833.3333333333334,862.6302083333334,3672.6881663004556,5028.80859375,1852.701187133789,958.3333333333334,3875.0,499.34832255045575,2875.1627604166665,3193.0338541666665,4901.85546875,646.3209788004557,3604.654312133789
356.0,541.6666666666666,3791.5032704671225,2499.0228017171225,4208.332697550456,800.6178538004557,1780.2734375,2267.0892079671225,4577.473958333333,5083.49609375,1000.0,2999.3483225504556,4833.332697550456,3558.267593383789,105.46875,1145.1822916666667,1303.2220204671223
357.0,2458.3333333333335,291.66603088378906,1459.6354166666667,791.8294270833334,1610.6770833333333,4393.065770467122,1074.8697916666667,4754.719416300456,2958.3333333333335,1916.5032704671223,791.0149892171224,749.9993642171224,437.4993642171224,2939.7780100504556,612.3046875,3431.314468383789
358.0,1666.6666666666667,83.65885416666667,832.1933746337891,2874.9993642171225,4810.871760050456,5155.924479166667,337.8899892171224,4863.76953125,3000.0,3875.0,3167.48046875,4374.999364217122,3732.4212392171225,1068.0338541666667,194.3359375,4687.662124633789
359.0,2958.3333333333335,3916.6666666666665,1376.3020833333333,1833.3333333333333,2515.1360829671225,4214.680353800456,1177.2454579671223,353.1901041666667,1916.666030883789,3458.3326975504556,625.9765625,2624.9993642171225,5101.724624633789,1762.857437133789,4439.453125,4859.048843383789
360.0,3999.9993642171225,4708.333333333333,126.30208333333333,874.9993642171224,364.9088541666667,3533.203125,2733.0729166666665,2279.9479166666665,416.66603088378906,4208.332697550456,542.8059895833334,3250.0,5151.041666666667,4024.90234375,3148.4368642171225,3306.4772288004556
361.0,1708.3333333333333,125.0,3123.5345204671225,3958.3326975504556,4030.1106770833335,4139.485041300456,513.6712392171224,2035.8072916666667,749.9993642171224,3500.0,3957.193374633789,2458.3326975504556,2476.8873850504556,4852.5390625,2767.251968383789,179.03582255045572
362.0,4374.999364217122,4583.332697550456,4206.705093383789,791.8294270833334,3191.2434895833335,4223.794937133789,1756.1842600504558,2299.966812133789,4583.333333333333,4958.332697550456,1998.697280883789,1375.1627604166667,5190.429051717122,2772.1354166666665,1695.9635416666667,1684.4069163004558
363.0,4458.332697550456,958.3333333333334,4539.712905883789,3999.9993642171225,3477.8639475504556,1298.3392079671223,4422.850926717122,1399.7395833333333,5041.503270467122,416.9921875,3668.45703125,2083.49609375,810.2213541666666,805.0123850504557,4984.537760416667,3734.6998850504556
364.0,4833.332697550456,4999.836603800456,3872.720718383789,2624.8366038004556,95.70248921712239,2285.4817708333335,1945.4752604166667,2230.7942708333335,41.5032704671224,250.16276041666666,2835.1236979166665,2750.48828125,2765.1360829671225,2609.5377604166665,812.9876454671224,645.9954579671224
365.0,3583.3326975504556,3416.666030883789,5293.782552083333,291.5032704671224,3491.2109375,3220.2142079671225,3599.9342600504556,618.9778645833334,208.49609375,2875.0,3164.8756663004556,2624.673843383789,1766.6009267171223,3936.8483225504556,2104.8170725504556,155.11067708333334
366.0,3999.9993642171225,1875.0,2706.0540517171225,1875.6510416666667,3737.3046875,3857.91015625,1407.71484375,461.58790588378906,4874.999364217122,1541.8294270833333,85.61197916666667,4624.348322550456,4269.856135050456,4143.880208333333,1736.81640625,4944.3359375
367.0,1750.0,2541.6666666666665,3960.2864583333335,3374.185562133789,1144.5306142171223,364.74609375,1714.1920725504558,1095.865249633789,3375.1627604166665,208.33333333333334,1252.1158854166667,1917.6432291666667,4517.415364583333,764.9733225504557,4431.477228800456,605.1425933837891
368.0,416.5032704671224,2250.0,2414.224624633789,543.1315104166666,5097.004572550456,590.0058746337891,5135.741551717122,2893.7174479166665,4666.666666666667,4916.666666666667,1914.224624633789,4290.363947550456,3649.4140625,3653.4830729166665,4856.282552083333,5151.041030883789
369.0,291.8294270833333,4458.169937133789,2663.8991038004556,2164.5501454671225,4614.2578125,841.3079579671224,2108.88671875,2779.4596354166665,1625.0,5250.0,3294.1080729166665,2835.6119791666665,4598.957697550456,2225.259780883789,1897.7858225504558,4639.647801717122
370.0,4166.503270467122,4000.1627604166665,4711.751302083333,705.5657704671224,2678.384780883789,1347.6556142171223,4054.361343383789,536.62109375,1249.8366038004558,375.0,1628.41796875,3544.5963541666665,1523.2747395833333,686.3606770833334,2858.5611979166665,4613.606770833333
371.0,2748.3717600504556,750.9765625,4579.751968383789,2245.9303538004556,2240.0716145833335,4609.700520833333,2744.4661458333335,4048.990249633789,3459.7981770833335,2999.185562133789,746.9069163004557,1795.8984375,689.1276041666666,1685.8717600504558,4470.702489217122,2725.748062133789
372.0,996.5813954671224,3581.0540517171225,2912.759780883789,1964.1927083333333,4850.259780883789,5077.63671875,1784.9934895833333,183.91863505045572,2038.0853017171223,2002.2786458333333,4503.580729166667,3911.1321767171225,4895.5078125,4512.857437133789,3557.291030883789,2109.6998850504556
373.0,2380.859375,627.9296875,3787.759780883789,1174.1536458333333,1845.2142079671223,619.62890625,4779.296875,1397.94921875,1286.6204579671223,1919.921875,2253.41796875,159.01629130045572,681.1517079671224,973.1438954671224,4186.848958333333,1437.5
374.0,4369.791030883789,2036.783218383789,2996.4186350504556,991.3730621337891,3115.8854166666665,4303.222020467122,816.89453125,328.2877604166667,3255.2083333333335,4963.37890625,3253.7434895833335,3491.373062133789,2308.755874633789,5270.018895467122,5104.328791300456,4614.2578125
375.0,3420.5729166666665,1254.2317708333333,120.76759338378906,675.29296875,3055.9889475504556,1274.4140625,4867.024739583333,629.2311350504557,4788.085301717122,4245.767593383789,4620.930353800456,3841.9596354166665,2104.3294270833335,1352.7018229166667,2596.1907704671225,4847.981135050456
376.0,4587.565104166667,328.77540588378906,3879.5572916666665,2342.28515625,1190.5924479166667,2780.9244791666665,4254.393895467122,3319.9869791666665,3537.5970204671225,2495.279312133789,746.0931142171224,4657.714207967122,3773.7623850504556,4348.143895467122,4305.826187133789,269.53125
377.0,3047.6888020833335,4754.231770833333,120.76759338378906,3384.1145833333335,3264.9733225504556,1589.1920725504558,1092.935562133789,3232.4212392171225,5005.696614583333,2462.5651041666665,4462.890625,3217.7734375,1981.7708333333333,4096.353530883789,4023.2747395833335,3139.6484375
378.0,4713.704427083333,746.0931142171224,3622.0696767171225,2198.892593383789,4009.927749633789,4451.334635416667,858.2356770833334,595.7024892171224,2796.875,4454.589207967122,3419.7591145833335,4301.26953125,3443.6848958333335,5224.771499633789,226.5625,4722.655614217122
379.0,1411.4576975504558,2496.9069163004556,1461.42578125,2657.0631663004556,2030.1106770833333,1068.84765625,1680.0123850504558,3921.3860829671225,3869.791030883789,2330.5657704671225,2997.0696767171225,2449.380874633789,893.2285308837891,5310.872395833333,3608.2356770833335,3363.6067708333335
380.0,1880.5338541666667,4711.100260416667,3086.2630208333335,4301.106770833333,3483.0729166666665,1723.6321767171223,2838.541030883789,3007.486343383789,3797.0377604166665,4247.232437133789,2961.1002604166665,3198.892593383789,1482.095718383789,1147.6236979166667,1446.4518229166667,1684.0813954671223
381.0,2786.294937133789,3788.8991038004556,3378.41796875,92.93619791666667,3638.6712392171225,3089.517593383789,244.140625,233.23567708333334,172.20052083333334,2336.2630208333335,4795.247395833333,1032.5514475504558,5314.127604166667,654.296875,4640.298843383789,1526.2037913004558
382.0,4589.029947916667,629.0690104166666,3836.5885416666665,156.90040588378906,531.4127604166666,4703.287760416667,2821.2890625,3856.2825520833335,4672.526041666667,4538.085301717122,5205.077489217122,2656.7376454671225,3139.1595204671225,4431.477228800456,5020.345052083333,3687.5
383.0,3535.806655883789,4330.240249633789,3961.5885416666665,1218.0989583333333,449.70703125,2093.912124633789,848.6321767171224,3410.64453125,36.1321767171224,2288.5735829671225,336.5885416666667,3134.4401041666665,4108.561197916667,2397.6236979166665,1228.3522288004558,1738.4440104166667
384.0,4214.518229166667,4587.076822916667,80.24024963378906,717.7734375,152.66927083333334,393.0657704671224,3798.990249633789,88.05274963378906,423.0143229166667,3337.2395833333335,1246.9069163004558,1656.900405883789,2479.166030883789,1143.8802083333333,4762.206395467122,402.1809895833333
385.0,2881.0221354166665,1086.7513020833333,1961.5885416666667,3615.2337392171225,4688.802083333333,5197.75390625,628.7428538004557,2862.6302083333335,2380.859375,5045.084635416667,663.7363433837891,4134.765625,5066.080093383789,514.8105621337891,4805.337905883789,353.3528645833333
386.0,2965.0065104166665,4080.240249633789,996.7441558837891,324.2181142171224,2429.6868642171225,3214.6803538004556,4801.106135050456,1228.3528645833333,631.5104166666666,4955.077489217122,128.58072916666666,5300.944010416667,2017.0892079671223,3737.1419270833335,1018.0657704671224,2474.9348958333335
387.0,576.9850413004557,2913.4108225504556,1455.0774892171223,5050.944010416667,342.7728017171224,3159.5052083333335,3149.4140625,2219.0748850504556,5006.184895833333,462.0768229166667,1496.4186350504558,1676.1067708333333,472.81837463378906,4066.5690104166665,2440.4290517171225,2320.1497395833335
388.0,1743.326187133789,4996.581395467122,2788.248062133789,3093.0989583333335,2719.0748850504556,973.9576975504557,721.5162913004557,711.9134267171224,423.1770833333333,3503.2552083333335,3454.5892079671225,157.38868713378906,565.5924479166666,2769.2057291666665,4566.731770833333,4635.416030883789
389.0,2798.828125,2746.744155883789,3378.7434895833335,3176.26953125,2723.306655883789,3151.5299479166665,4827.962239583333,2298.3392079671225,4409.830093383789,4961.588541666667,3246.5813954671225,2093.0989583333335,1356.119155883789,2352.3756663004556,2970.376968383789,350.42254130045575
390.0,3548.828125,1954.9147288004558,5121.093114217122,1010.0911458333334,2810.8717600504556,2630.6959788004556,2786.1328125,1475.9108225504558,2423.6653645833335,3371.4186350504556,45.735677083333336,2384.765625,3314.126968383789,446.2890625,3651.6927083333335,4472.981770833333
391.0,423.828125,3287.759780883789,245.6048329671224,884.9283854166666,2885.904312133789,911.1328125,2095.376968383789,3229.3287913004556,243.1634267171224,962.5651041666666,412.27149963378906,3176.7578125,2513.9967600504556,3597.9811350504556,396.4837392171224,2729.9798329671225
392.0,840.1692708333334,4871.255874633789,2245.279312133789,5176.7578125,2048.6647288004556,4572.265625,2766.9264475504556,45.8978017171224,4673.665364583333,1587.7278645833333,2953.6126454671225,73.40431213378906,2151.6927083333335,3769.693374633789,979.6543121337891,2698.2421875
393.0,257.6497395833333,5212.727864583333,4994.791030883789,3634.6028645833335,2111.9791666666665,1648.6002604166667,4200.846354166667,5039.713541666667,5174.153645833333,3579.1009267171225,3286.6204579671225,2510.0911458333335,520.1816558837891,1685.2213541666667,2803.384780883789,5262.531916300456
394.0,3799.1536458333335,2005.2083333333333,2255.2083333333335,3448.5670725504556,1477.8639475504558,2843.912124633789,1831.0546875,3696.77734375,90.98307291666667,4380.37109375,1005.2083333333334,301.7578125,1107.7467600504558,5138.671239217122,470.53972880045575,1688.9642079671223
395.0,4091.6341145833335,1702.798843383789,868.9772288004557,2948.2415517171225,234.86328125,996.4192708333334,3924.478530883789,5058.756510416667,2949.869155883789,2660.806655883789,4619.302749633789,4948.404312133789,5017.740249633789,2218.912124633789,482.2591145833333,5027.505874633789
396.0,3550.4557291666665,2410.318374633789,964.35546875,2718.5872395833335,3174.8040517171225,2535.15625,3857.91015625,5053.222020467122,1658.2024892171223,3631.8359375,2880.6966145833335,4156.737645467122,1096.353530883789,4150.87890625,4066.080093383789,2446.1263020833335
397.0,3217.6106770833335,3743.326187133789,4006.5104166666665,2698.404312133789,383.7884267171224,3901.85546875,2819.82421875,5332.356770833333,3884.6028645833335,965.0065104166666,1840.33203125,5218.75,2808.1048329671225,3976.8880208333335,3025.2278645833335,242.1875
398.0,51.106770833333336,2590.1692708333335,5007.32421875,2573.2415517171225,3515.298843383789,3641.275405883789,662.9231770833334,1245.9309895833333,3532.876968383789,3007.1614583333335,2867.837905883789,489.7454579671224,1685.3841145833333,4102.538426717122,4031.25,151.3671875
399.0,5283.039728800456,576.1712392171224,590.9830729166666,198.56707255045572,3604.8177083333335,1245.2799479166667,4670.083999633789,1058.755874633789,4866.210301717122,2742.837905883789,3033.853530883789,1907.0631663004558,102.21354166666667,4511.392593383789,2611.81640625,4360.839207967122
400.0,3799.9674479166665,1548.5026041666667,1534.0162913004558,592.6106770833334,385.41603088378906,2788.2486979166665,3887.5319163004556,5312.662760416667,1133.4635416666667,3007.1614583333335,4617.349624633789,5032.388687133789,320.1497395833333,2180.337905883789,61.848958333333336,1562.1744791666667
401.0,3173.828125,1423.33984375,4367.512385050456,2035.4811350504558,1245.2799479166667,4656.575520833333,4018.0657704671225,2919.107437133789,908.8535308837891,826.8222808837891,4283.853530883789,2035.4811350504558,1263.833999633789,22.94921875,2103.3528645833335,4241.861979166667
402.0,3411.4576975504556,5079.751968383789,2618.0006663004556,872.0696767171224,1512.369155883789,4560.220718383789,5034.342447916667,3625.4876454671225,536.6204579671224,5204.751968383789,5076.171239217122,1252.9296875,230.46875,1185.3841145833333,3886.0670725504556,53.2220204671224
403.0,1960.6119791666667,5123.534520467122,5245.116551717122,41.34051005045573,3814.1276041666665,2947.4283854166665,543.1308746337891,5156.087239583333,4585.44921875,793.1315104166666,1213.37890625,83.984375,4100.423177083333,4986.002604166667,3279.78515625,645.1822916666666
404.0,959.6354166666666,5250.0,1704.9147288004558,1166.9921875,1943.359375,3163.57421875,924.9668121337891,2392.08984375,2165.689468383789,1416.6666666666667,288.24806213378906,1583.3333333333333,1065.5924479166667,4843.749364217122,1059.244155883789,3722.4934895833335
405.0,249.67384338378906,2958.3326975504556,1663.736343383789,4999.999364217122,282.0638020833333,3130.6959788004556,5100.422541300456,595.0514475504557,1082.8444163004558,3374.8366038004556,2.9296875,2333.3326975504556,3819.4986979166665,4181.802749633789,392.9036458333333,2654.296875
406.0,1916.666030883789,3833.3326975504556,3835.9375,2708.3326975504556,2739.2578125,4972.818374633789,3944.82421875,2290.3645833333335,3041.5032704671225,1875.1627604166667,2252.6041666666665,166.5032704671224,3566.0807291666665,2439.615249633789,1891.275405883789,2466.7962392171225
407.0,833.1699371337891,2041.666030883789,2919.1080729166665,3791.666030883789,433.5931142171224,5141.112645467122,4462.076187133789,5119.954427083333,4833.333333333333,4000.0,580.8912913004557,3416.8294270833335,2398.9251454671225,4439.290364583333,3176.919937133789,942.5455729166666
408.0,3416.6666666666665,2041.666030883789,3331.705093383789,625.1627604166666,186.68556213378906,4828.61328125,2170.572280883789,3815.7552083333335,4333.333333333333,4958.49609375,1664.8756663004558,4041.6666666666665,3811.03515625,3094.7259267171225,1111.4908854166667,3611.3274892171225
409.0,2541.5032704671225,3958.49609375,1709.7981770833333,1583.3326975504558,1988.9322916666667,1795.572280883789,761.7181142171224,1104.9798329671223,2749.9993642171225,2958.3333333333335,3084.7981770833335,1624.9993642171223,3805.5006663004556,4430.012385050456,2563.4759267171225,1436.5234375
410.0,1999.8366038004558,5291.666666666667,4542.154947916667,2499.9993642171225,425.45509338378906,136.06707255045572,559.8951975504557,629.3938954671224,249.9993642171224,1375.0,4792.154947916667,1583.3333333333333,5108.723958333333,1561.197280883789,1144.6940104166667,3656.9010416666665
411.0,3249.9993642171225,417.1549479166667,1041.8294270833333,2750.0,1736.9791666666667,1981.6080729166667,3992.8385416666665,2373.8606770833335,2291.666030883789,1666.666030883789,5000.0,4208.333333333333,3353.5149892171225,1018.3919270833334,155.76171875,2029.6223958333333
412.0,2749.9993642171225,166.82942708333334,4916.666030883789,3041.666030883789,145.34441630045572,2572.75390625,1251.626968383789,4405.76171875,2583.3333333333335,2041.666030883789,833.3333333333334,1333.49609375,566.7311350504557,2930.5006663004556,1488.6067708333333,146.64649963378906
413.0,1625.0,4624.999364217122,4708.332697550456,750.0,1776.0416666666667,1005.3704579671224,366.3736979166667,600.5859375,2249.9993642171225,4416.666030883789,1833.6588541666667,708.3333333333334,1732.0963541666667,30.110677083333332,3887.5319163004556,1152.6686350504558
414.0,1958.3326975504558,3750.0,3416.6666666666665,250.0,3490.5598958333335,4285.15625,1848.1438954671223,345.05144755045575,4291.666030883789,3291.666030883789,3333.3326975504556,1666.8294270833333,4805.663426717122,1234.375,3227.3763020833335,262.6946767171224
415.0,1833.49609375,500.1627604166667,4500.0,4708.333333333333,1218.5866038004558,3472.9811350504556,820.1497395833334,2123.3723958333335,5041.503270467122,583.3326975504557,4958.333333333333,4999.999364217122,184.24415588378906,2060.546875,807.7793121337891,300.12957255045575
416.0,3458.3326975504556,2999.9993642171225,5124.999364217122,3958.3333333333335,1026.85546875,4483.3984375,5329.427083333333,4714.354832967122,333.3333333333333,4374.999364217122,4625.0,375.48828125,2935.2213541666665,147.13541666666666,3198.2421875,4433.430353800456
417.0,1875.0,1375.0,3458.3326975504556,4291.666666666667,1393.8795725504558,662.109375,3962.076187133789,3731.93359375,5124.836603800456,5041.666666666667,3416.8294270833335,4791.666030883789,4355.630874633789,4219.725926717122,1819.6614583333333,4319.498062133789
418.0,1583.3333333333333,4249.999364217122,1041.6666666666667,2666.6666666666665,3197.4283854166665,1162.59765625,4386.880874633789,520.5071767171224,1041.666030883789,2791.666030883789,4791.503270467122,1041.6666666666667,3555.6634267171225,3180.826187133789,4521.483739217122,1104.654312133789
419.0,4333.332697550456,4791.666666666667,0.0006357828776041666,5250.0,4632.323582967122,2155.5989583333335,4314.94140625,4961.262385050456,3500.0,4249.836603800456,2250.0,374.9993642171224,151.52994791666666,3311.3600413004556,313.63868713378906,4741.536458333333
420.0,3541.8294270833335,2708.3333333333335,3166.666030883789,2791.6666666666665,1179.1985829671223,2351.3991038004556,117.83854166666667,4499.0234375,5208.332697550456,125.16276041666667,166.82942708333334,4083.3333333333335,63.802083333333336,4185.709635416667,511.06707255045575,1363.1184895833333
421.0,5166.829427083333,4541.666666666667,3125.1627604166665,3583.3326975504556,1478.189468383789,1594.0748850504558,5289.876302083333,530.4361979166666,833.3326975504557,3958.3326975504556,2249.9993642171225,4541.666030883789,5024.738947550456,1361.1653645833333,863.4440104166666,1853.515625
422.0,1583.3326975504558,1833.3326975504558,4708.332697550456,4958.332697550456,849.2832183837891,1370.2799479166667,4325.1953125,2100.4231770833335,166.66666666666666,3791.666030883789,2583.3326975504556,1250.1627604166667,773.92578125,363.76953125,4975.910822550456,2389.16015625
423.0,1625.0,2750.0,3541.6666666666665,3458.3333333333335,4800.455093383789,1132.486343383789,3100.4225413004556,1846.0280100504558,41.666666666666664,2875.0,1749.9993642171223,833.3333333333334,403.3203125,1859.5377604166667,5065.917332967122,3471.1907704671225
